time,lead_I,lead_II,lead_III,lead_aVR,lead_aVL,lead_aVF,lead_V1,lead_V2,lead_V3,lead_V4,lead_V5,lead_V6
0.0,-0.039784030047562216,-0.06666194067254981,-0.01990575704452414,0.01579078421926424,-0.02751996936316219,-0.012297807396314992,-0.04314611285992074,-0.012891615481840125,-0.02914257210339418,-0.03500682771728303,-0.006568110928320232,-0.0371395491236909
0.002777777777777778,0.17572324031006994,0.19957183810838686,0.1151223029876398,-0.08204306034223734,0.16336679761133255,0.1436170703918002,0.12962872917259036,0.17483359525465123,0.21303968795138728,0.1904555312872581,0.17149612133800357,0.16259629131492231
0.005555555555555556,0.384653320783644,0.30546251830631554,0.22503316974565973,-0.15309990608551927,0.33082482619089243,0.3083266238444066,0.19407328711169797,0.3150147665329158,0.33792317237457226,0.3793909825703209,0.3430438364995619,0.30659839349712525
0.008333333333333333,0.5081486670204267,0.43105296309535995,0.31354432011643874,-0.237920353060823,0.48755053565021456,0.33232944624296257,0.23152311871303113,0.4187696523404413,0.4614340208815583,0.5267342752505288,0.4692373587750191,0.3985823667492577
0.011111111111111112,0.7216748981117563,0.5656760061836335,0.453113973848885,-0.2805908513889668,0.6630040083641079,0.513441027542536,0.39405889240440195,0.6286232642370843,0.6487751858837936,0.7076988503581016,0.6510090650009849,0.581454138144839
0.01388888888888889,0.7335393695639931,0.5866471275996811,0.4369551886797118,-0.28606434400535735,0.6351442047629846,0.5183709364098003,0.35354712664320076,0.548403814932476,0.6597336649620197,0.7549364921132603,0.6475488885280178,0.5823424216004385
0.016666666666666666,0.7810281372977188,0.6302619925421591,0.466119017882137,-0.30527651227385144,0.7013436140181465,0.595816657907578,0.41689885874101773,0.6335074500671022,0.7421077858103869,0.8132481649445354,0.7121186387651639,0.6411712324204019
0.019444444444444445,0.6474412494178238,0.5600576069309573,0.4136709039490629,-0.268628831595678,0.6322196807847862,0.4885441456945513,0.33055986978889856,0.5213957205299821,0.6740123054645287,0.6837786893228409,0.5635320520532735,0.5364799488396343
0.022222222222222223,0.7333378547068115,0.5552240145214936,0.45240616480106743,-0.28210167430422406,0.6890973714978387,0.5407621356100811,0.39930188504823527,0.6011040927217154,0.6573123706504114,0.7165316346757747,0.6678995178643933,0.5764627687734379
0.025,0.7836476749495713,0.6178285221439921,0.4641430065152305,-0.2948579723524011,0.666243147093556,0.5426780024510669,0.36596889680526595,0.5886795255463977,0.6732946418068269,0.75927088829811,0.6441022372263944,0.595960863248885
0.02777777777777778,0.6007703249860754,0.5185089124381402,0.39260281340047165,-0.262656845273714,0.5562832916342936,0.4345129583564623,0.29556006728114625,0.4869992728851383,0.5838839663001268,0.6267576906900508,0.5603683319217226,0.5027281503477978
0.030555555555555558,0.4275048043795622,0.31598770462222187,0.2504855494091102,-0.1732455195020979,0.4227925633856649,0.29374646482214684,0.20407979405396431,0.371117278963437,0.39392104528862804,0.43859248328659006,0.371716321779969,0.3441421078858777
0.03333333333333333,0.40602764435705585,0.32357395345029566,0.24879076631704644,-0.1959064424112804,0.3630267201495023,0.28523500776840505,0.17293888127958112,0.33545535185814984,0.40147424432674944,0.4511564814366031,0.38448416732792146,0.3813770997377104
0.036111111111111115,0.18729132230799195,0.12554508119462912,0.12039252786902087,-0.09139368519018909,0.15706772534266628,0.1243728504487158,0.09259239151072267,0.128444376581621,0.14245033072541852,0.19328994542471106,0.13311482037808348,0.09795183561782304
0.03888888888888889,-0.06401512065268472,-0.02716479392303599,-0.030019841796841147,0.02964916830302505,-0.04106505182263519,-0.033575499591572563,-0.026832797071574554,-0.040744365129659274,-0.06214110030421639,-0.07295027190100789,-0.03806394281694149,-0.0539381794291945
0.04166666666666667,-0.05759917400251693,-0.007517144495004863,-0.013453102454552114,0.028062777133006866,-0.05500611574282191,-0.030844801222776084,-0.03615195280810453,-0.013006023508376104,-0.047667168651100725,-0.07823110268880963,-0.008095165063926615,-0.048198236048719596
0.044444444444444446,0.005370247136286763,0.028952592385969537,-0.011940299207322877,-0.03388503132860666,-0.031362387967709134,-0.015625007059932042,0.01936954543070698,0.004870414760823832,0.008188932285049811,-0.0015747044228655348,-0.03317480624196981,0.00268399413610103
0.04722222222222222,-0.01154695982232588,-0.013409493978276664,-0.010144824154289939,0.008581937174887738,-0.04228001060873588,-0.027016005617373245,-0.007932071968409903,-0.01734789457206867,-0.05251169005109811,-0.03392655918364946,-0.02298141838002316,-0.026135681238101414
0.05,-0.06538100883512972,-0.04007027163978231,-0.00828388037343311,-0.025750873466810247,-0.03400296204450058,0.033826777667328306,-0.020734473819608537,0.014492421825534882,-0.007834632859562807,-0.028779004945165672,-0.01943097585243391,-0.03396539212966234
0.05277777777777778,0.010449672064920914,-0.008990273184574307,0.04508862633440283,-0.022660945202889145,0.04806907204212844,-0.025407026185157673,0.02129006598533388,0.015120086701222018,0.023963499319349418,0.01641037269169376,0.019081713055234793,0.01757050260268749
0.05555555555555556,0.016556288585042336,0.045187386536392746,0.010974692394295856,-0.040077001941291636,0.0050438602358757936,0.025265692362921012,-0.021510652722532303,0.009281662387687776,0.053029339942560934,-0.0027205448154452895,0.03331337079612742,0.02821240769273708
0.058333333333333334,-0.057805442554147664,-0.11244484426113092,-0.05963868990084044,0.030473185217791594,-0.1004670493418452,-0.0459884046950068,-0.005383801618040557,-0.06826414565554288,-0.09079200759720603,-0.08642917859899446,-0.06205575782983623,-0.08169651899034708
0.061111111111111116,0.02603907149276888,0.018895149252675242,0.022865394517058206,-0.014544822563267114,-0.004183049739627999,0.04035008047991058,-0.027476252037801505,-0.0020767631278918695,0.021152040792553912,0.01505051496758222,-0.004195412442510427,-0.007085881997018439
0.0638888888888889,-0.07798243461216978,-0.037168363001094676,-0.041104873339873754,0.012552372322006343,-0.05634203373047328,-0.018985429829958506,-0.010051497301992375,-0.03793159046208039,-0.06815455139666418,-0.05435775755120722,-0.07458814268383293,-0.060070409664768565
0.06666666666666667,0.05102588841818354,0.023690576243792755,0.02037590534559848,0.0061592017103514664,0.010768592185916631,0.020034153112679445,-0.002670359462370998,0.015868500976147396,0.017497315981074953,0.019143060012232954,0.06260245101181904,0.020399101155439987
0.06944444444444445,0.05262335990001658,0.050845120142096856,0.0518864226214332,-0.019052519692546656,0.06738658222700722,0.058047206803936456,0.014980216326817475,-0.00561445907518552,0.044224019964348625,0.08156163222692177,0.04572159388717441,0.031077431104768436
0.07222222222222223,-0.04329926385449435,-0.044711768076926416,-0.037915079794558264,0.007989712301828655,-0.043221934798119706,-0.04866421400411718,-0.03937752427415424,-0.06839642670229981,-0.02725970669601294,-0.0227013786063244,-0.03441828135803022,-0.008436100583635961
0.075,0.0022949830316338904,0.022813444866773044,0.00019973796486713775,0.008534163038917627,-0.011139221541619195,0.0028768923870146675,0.011197551842046882,0.05299973903227404,-0.006078222307618002,6.948080812899105e-05,0.009812552380716714,0.004876911169416027
0.07777777777777778,-0.026648955057102672,-0.041836617828224655,-0.006505490916251817,0.001928194454901477,-0.03708440523948809,-0.010469563529457177,-0.009551625972969205,0.004560275619740359,-0.013193645777555739,-0.039305987789658256,-0.03789627357690875,-0.01784185759822944
0.08055555555555556,0.0009878775056449771,-0.020317501939373497,-0.007912618291418249,-0.016420309772891505,-0.033190598291945636,0.010151818714627952,0.0008165291302861697,0.0029105373998922577,-0.006193282084993588,-0.03151269738878613,-0.027268413680413956,-0.003935467428916664
0.08333333333333334,-0.013240295308991895,-0.005930244042656708,-0.011841452783294598,0.006475917131882112,0.006997839110881674,-0.0016898567364456597,-0.0006919535304729099,-0.034504377992407416,-0.003764270392910384,-0.018273231457039185,-0.00914247460443152,-0.0326449370608748
0.08611111111111111,-0.06439166255409794,-0.025665665182534145,-0.008375235447156223,0.07387152616153683,-0.07040481530037832,-0.05695925747810313,-0.04392535554675667,-0.05303499545050052,-0.03299360219736918,-0.09736012790110096,-0.07302661183905815,-0.06997927589796106
0.08888888888888889,-0.021319544445905635,0.012311612902480153,0.015082432356412764,0.03345705206977834,-0.006683087036548463,-0.0266080303093565,-0.0013187254743457421,-0.033673936669833975,0.008499531228233773,-0.024590191964906742,0.0060147158457839675,-0.055888389332544704
0.09166666666666667,-0.014927405000896211,-0.01952289285767443,0.00550298422683039,0.009763204094549468,0.02009890900932343,0.0005037480412344274,-0.002335689946594312,0.007858716786470155,-0.040151282192976936,-0.019136677541483592,-0.06739394367999568,-0.05536528890694244
0.09444444444444444,0.0286097153822712,0.02374406821417035,0.012356234462430025,-0.011068839618344905,0.01778050131208313,-0.0003685385366845942,0.023523879374029416,0.04709257081568309,0.025098493879305343,-0.027355305693682642,0.029151519368978206,0.055817313180694626
0.09722222222222222,-0.011932112056375722,-0.02470501965561397,-0.025028986248005973,0.015756748195496998,-0.026026424546341364,-0.03428916673945507,-0.010445688816317092,0.01081706967260311,0.0013399456334989958,-0.02517054613194125,0.01683860055102608,-0.02229207755923452
0.1,-0.055542575111235365,-0.05426689811937524,-0.05363148343376055,0.03751373227819975,-0.09032494796179517,-0.04346627724274067,-0.034944036554044565,-0.040044414524663424,-0.041787930819342345,-0.05991697038841462,-0.06990012396344505,-0.04174286369037422
0.10277777777777779,0.0241547436014188,-0.04229429025639569,0.015278381032007501,0.0090391992009384,-0.0016723685510250405,0.02496991608003772,0.011242219596374515,0.0014785744359643097,-0.012181258189013354,-0.008565882988451543,-0.01962289666406973,0.004939751831169415
0.10555555555555556,-0.00973283607956104,-0.01450290721346608,-0.003581707281569007,0.008244964780156374,-0.003225359499946451,-0.005653098218654548,-0.020467613064194742,-0.026881465249180767,0.009019646513786799,-0.009297525698189044,-0.016191038245445034,0.010050806432634852
0.10833333333333334,-0.08654956254571225,-0.04915963311605255,-0.030730923025524503,0.03997659930206042,-0.06836650490673783,-0.030628455583799286,-0.07741990404921129,-0.0557917881553014,-0.06937254468491788,-0.0823032006248144,-0.054106527760847026,-0.08785853618902152
0.11111111111111112,-0.08395951569553291,-0.07266145014059226,-0.03061900867323459,0.022478833770344715,-0.07524808155789892,-0.03626892893641008,-0.06942173574284449,-0.05444041773027543,-0.07570938911788354,-0.09479482625616292,-0.08029382973596608,-0.05741263361413655
0.11388888888888889,0.037735972199707576,0.009327068852725131,0.023604265129810818,-0.02855529581020985,-0.018938093438575568,0.028760966762591735,0.020287443454839557,-0.00937354044175489,0.010736120742142308,0.005633829156278914,0.01594683633691847,0.009862685285536061
0.11666666666666667,-0.04670062040921565,0.005382277080300597,-0.05539427819569513,0.03082787499989807,-0.04545174883108315,-0.0010532294128425754,0.005990549197971783,-0.04303812063892734,-0.009993095171089317,-0.033435765931668526,-0.04122602671716982,-0.033673072542974795
0.11944444444444445,0.009025651750940483,0.019490318366106138,0.01296964885617998,-0.017765026658684277,0.040790087077802774,-0.005465641683058952,0.00579089320453792,0.037009512059104493,0.03900725757748554,0.008555733502106838,0.008939972020987882,-0.01763852204344187
0.12222222222222223,0.039665648319433984,0.014771178628230866,0.023045626880417842,-0.004571984664796648,0.045434195865339526,0.03732592327272917,-0.00432434123445815,0.04298770558562416,0.016466428647376317,0.07363684785874369,0.019876226039702127,0.03376600374056429
0.125,0.005263496513577114,-0.04391208044569662,-0.01578000120639409,-0.024091272013391864,-0.00224481824388496,-0.02444935584900279,0.013440142164047502,-0.009829736563870293,-0.031860069887069874,-0.03032769212585985,-0.04040987309473795,-0.012502570251028513
0.1277777777777778,0.03143479397674418,0.01217892849241645,0.03317875360246357,0.026558974172917308,-0.011361526768561002,0.0072015556335011345,0.0053852951654797246,0.03297644916258364,-0.012735055705304995,0.014660402484516848,-0.04275290212236318,0.027411907125873256
0.13055555555555556,0.08441479425185223,0.019611045816307696,0.04510209089053411,-0.011367184750235647,0.09484197331195651,0.05933847881500501,0.07272285086815525,0.03893354390953535,0.04320313824938227,0.08435531591726834,0.08660995062849593,0.03956239974948056
0.13333333333333333,-0.031669305213699,-0.03495760905088111,-0.04079590394755599,0.023177350247076615,-0.061365501696790406,-0.023884213651558885,-0.005745596553918483,-0.027785202044832123,-0.011028821965889342,-0.0432301911743321,-0.011158418586489027,-0.029828405656267175
0.13611111111111113,-0.017383169234042494,-0.006749898554414311,-0.011849065880723554,0.03804536870860942,-0.04351107615781465,-0.005176517945195669,0.016668771516633617,0.0006742232692410095,-0.007465926124157719,0.008279766081200724,0.0009359975693385789,-0.04925827437168366
0.1388888888888889,0.10635592198706745,0.116404443889828,0.06295811319762179,-0.06701747722990306,0.05784503534261981,0.08203490362308066,0.05396927815983358,0.04560083494753724,0.0812492366830209,0.08848638787855043,0.09298035382298056,0.08456367846820088
0.14166666666666666,0.12785940910185428,0.10670622600363373,0.03362130528741149,-0.03904203271778653,0.10207332368989894,0.1206182640598689,0.04996654677894781,0.0666453498927704,0.10110555398776294,0.10702131105012821,0.0925589796846308,0.06647598753607069
0.14444444444444446,0.033849724499940406,0.05425643125742057,0.0019544739805211556,-0.00483926707315349,0.0703957347067938,0.011430842845691519,0.027144249432943093,0.004985887567448499,0.047239406130833356,0.013458682087755969,0.012986408384170905,0.032300631742784226
0.14722222222222223,-0.04203532557594788,-0.033873245402280476,-0.05726511049927448,0.04979575333166447,-0.05542698183307155,-0.0515999820178377,-0.005782516735105384,-0.020817627378966207,-0.020102097201035177,-0.05280264876169098,-0.040530066706444365,-0.0379259920340465
0.15,-0.0016890363873877344,-0.002619715338114505,0.0026331712838335,0.02069813552906493,-0.009038662665090345,0.0332181294010763,0.001873858073491018,-0.021963060684318254,0.018088615156808402,0.014652321886472471,0.013691601854120853,0.03562583615183075
0.1527777777777778,0.03689871637256316,0.012171015497610784,0.01965481621759049,-0.02350685385406289,0.04116396418186509,0.0007972244161936655,-0.024834296602838216,0.05225602319772212,0.03078835075005099,0.05707286367852153,0.029700553613917394,0.012351178928845637
0.15555555555555556,-0.011247255609585604,0.014964581720214643,-0.025330654167857625,0.032251461230142275,-0.010855037960260062,0.018535747633235684,0.00885887325692675,0.0038229014589260366,0.0023286379914571834,0.00830317695624395,-0.021059116925545185,-0.012221774215220794
0.15833333333333333,-0.08456771380228509,-0.05941980860706469,-0.057096984488595126,0.01684920367972036,-0.07566868909668657,-0.03811664122027461,-0.015260284809050919,-0.03637413964205087,-0.01604449789794222,-0.018606275828623876,-0.06170721860460072,-0.03039348395421266
0.16111111111111112,-0.0821303521711883,-0.023175908995639635,-0.025348783362782012,0.009624699706655703,-0.05880279229924569,-0.059808456806093716,-0.03157644745725206,-0.060918720136055426,-0.07940283004206904,-0.09498613087911634,-0.05033209704740464,-0.030616780851036265
0.1638888888888889,0.052672249492298845,0.057559810218131974,0.03338649392386807,-0.049939739746871485,0.03510813149381266,0.06671589217370391,0.050539438375244466,0.013153253966856578,0.04755908326269211,0.07040217688025108,0.09673622684666994,0.02577633195323724
0.16666666666666669,0.004331306026019841,0.01906017120461724,0.013068540969115028,-0.036582508108429425,-0.025457496003670452,0.01695140021905132,-0.03023138322174005,0.025605529447704355,-0.0114240275869116,0.006654636659660412,0.01958486477875274,0.01930947744278642
0.16944444444444445,-0.019855562777077916,-0.020090762397334552,0.012496636675522968,0.022681869290964968,-0.01733790175541079,0.0033528147886662564,0.010509223235568077,-0.01842678842559089,-0.019593372495520574,-0.03332761774646238,-0.025751500491239636,-0.0307585223917584
0.17222222222222222,-0.00040951183051972026,0.034097787014180876,0.03613357166485327,-0.01999948607352873,0.046688257284329744,0.07005456187154149,-0.005711309557326405,0.04645762278223024,0.028447341329518167,0.009078508245727937,0.011616437473678687,0.009303920883699695
0.17500000000000002,0.022754219842268667,0.0006379726704879387,-0.005007342794723701,0.00012628424659422182,0.019688180058600055,-0.01460350742120911,0.027785489640410017,0.01737379418273833,0.0007795979086661227,0.013151583045193437,0.005540988928108701,0.007100661999624512
0.17777777777777778,0.0683586117450473,0.021698444234135653,-0.01842513331567171,0.01257686366016088,-0.026558500225546382,-0.015920762026043464,-0.0001472817758541218,-0.035085053981229956,-0.0011959082348484678,-0.020719010243661396,-0.00738486827987607,0.02750526886213466
0.18055555555555555,0.05906984411015167,0.04816256272753963,0.03800632438417655,-0.018508217849295166,0.0579312569359886,0.014267471155240774,0.011371654940284207,0.06731690625828272,0.027219830216238604,0.07906017956215772,0.07270791757142109,0.05160342626748063
0.18333333333333335,-0.012171678187353803,-0.02891020548818353,0.00262299710922076,-0.005440510538622271,0.027249961104746465,-0.018243368114713217,-0.009192344146933703,0.013619595275402765,0.029952514525969105,0.020212366678897642,-0.014068970156689297,0.010456965615725147
0.18611111111111112,0.06341330888153378,0.02025815687374641,0.044594916708741064,-0.0356676756002939,0.07968335664842167,0.02611146693794456,0.011644486306859315,-0.001679590074878369,0.03785204258790213,0.07265023292484626,0.04177500831559789,0.0669503905888098
0.18888888888888888,0.05729549370737881,0.013477650336369966,-0.00037930957568804713,-0.051945664005470835,0.035346479945206274,0.03200858476771113,0.006347138153796611,0.020389160410185448,0.03811459455957211,0.022362861170832193,0.03887144121906971,0.05614331175986864
0.19166666666666668,0.009886822751344993,0.022961998691150884,-0.016261417828232302,-0.0004915899866330363,0.01131800802909729,-0.0022111365040933407,-0.0014045596780333236,0.05011028283041651,0.03199096655154434,0.033273023702354326,-0.021175302808723186,-0.006513129580207248
0.19444444444444445,0.027309994442508284,-0.026981477964334488,-0.07296269580834747,0.007932841132447042,-0.02728837757741068,-0.03441384562746122,-0.03628462948840694,0.00874813690287965,-0.027847737738437503,0.004129289162726216,-0.02803144186153358,-0.03033908408549432
0.19722222222222224,0.11522196680687008,0.0726889917469483,0.06006790849609205,-0.06241922179830063,0.06667856326762772,0.0576004296605994,0.05475426207085738,0.09692791034047361,0.09067908350097291,0.07630835951895829,0.07967491553171566,0.09532543353507468
0.2,-0.03243132522954422,-0.01597565044588034,-0.026812683931835404,0.013442380667729369,-0.03855261580209113,-0.017300802751356717,-0.005879457042923338,-0.01515751469021848,-0.014160337036731151,-0.03636094741574769,-0.06822735851637324,-0.01236881006114915
0.20277777777777778,0.08024867815824575,0.06493556722074817,0.043204199585193025,-0.0801186268234676,0.057317608828998355,0.05680383945571872,0.04141760145966298,0.05310413626354271,0.07573331793617528,0.06050700003103863,0.08035652675737585,0.04270698287073458
0.20555555555555557,0.02081072788096372,-0.007521027658917779,-0.01918298810911663,-0.013735952074867441,0.028616259105520413,-0.003463605556249784,0.03430624046237601,0.005886558094328035,0.01701941272438902,0.007549329524858504,0.009921256465133445,0.03536380585131207
0.20833333333333334,-0.02558009395967971,0.0025623121915734105,-0.02089435218127795,0.0469981574175099,0.0028552321985811074,-0.020931056058984883,-0.007004429567916587,-0.03441166553165978,-0.02506354973439539,-0.01363674848145502,-0.006126884710531725,-0.005688088590248917
0.2111111111111111,0.012840944114378718,0.04259105713205194,0.0003549181813539996,0.01202504732302827,0.002719521042670432,-0.021133077976002234,-0.027203213376761147,-0.011953550644090552,-0.029436669301929244,-0.0049693252017735355,0.002368685632264422,-0.055172875225175146
0.2138888888888889,0.001886960248569495,0.053104796200175566,0.03683113126124427,0.0036601953123422864,0.011413451013187099,0.01829319432475618,0.005226689357470188,0.008748352254686164,-0.013062254132505936,-0.0051272113865043385,0.02723763127967752,0.0071346394114603145
0.21666666666666667,-0.0551633262193716,-0.032247301781790874,-0.016740140619245756,-0.010656119952077926,-0.08124222851224266,0.009021950557501145,-0.009650759257278685,-0.04381196133805786,-4.699339438592187e-05,-0.004515204898856333,-0.01626066990260818,-0.0478371694354475
0.21944444444444444,-0.07398480423217106,-0.05922892864722004,-0.039340065258866685,0.039077981807760884,-0.05288497276378376,-0.05604044921502475,-0.03805964080309864,-0.066116672989343,-0.03702734715693103,-0.07066202105920563,-0.0656552456688218,-0.06625109589979107
0.22222222222222224,0.11059721069622462,0.09826341277801384,0.05172686722801819,-0.04092835294898457,0.057701420316961224,0.07713077810724163,0.04677587699097227,0.04514479190013858,0.07488129496476642,0.04969491085953431,0.0963505224629601,0.06813070998026492
0.225,0.04625766790249136,0.0454717713979059,0.04155256996436078,-0.04097112811433579,0.06216957037713597,0.02237501603186259,0.059707738647027546,0.05204260575846968,0.06454689427408698,0.05936796798896189,0.01704849817283481,0.010133400514112628
0.22777777777777777,0.018775461884000276,0.0008768538042148687,0.030694737463766393,-0.01480500083813098,0.03320307398181987,0.02644768507967853,-0.0012642389279886833,0.028571895622850806,-0.000813639974109305,0.001591072433045907,-0.01531192379739596,0.027275831978754085
0.23055555555555557,0.032906669926158365,0.038743190505839346,0.03995663893640912,-0.028174537149568996,0.035995659567534935,0.047804359822861575,0.06816999669458043,0.022202727839279516,0.06200135888270031,0.05501154667871387,0.03481170524869196,0.02683461107496376
0.23333333333333334,-0.002189534598376095,0.026951140523143048,0.0069365170658650084,-0.018032625732158157,0.041453548927091494,0.03262050497860147,0.004376784470214147,0.011218979846080349,-0.021827725631050104,-0.0086299321226228,0.02741988761905377,0.010515701677543591
0.23611111111111113,0.010612212049101146,0.0036535836072054424,0.007628321671289599,-0.007654790028412122,-0.02843305504975848,-0.00953876393427391,-0.016557684795204388,-0.0046324239704836866,-0.005455053658779048,-0.008768915310429956,-0.030266374353963312,-0.008616570265422334
0.2388888888888889,-0.05315024192495383,-0.03286942442455003,-0.01921414270533843,0.03500122494876058,-0.02347530427573788,-0.01753127544916859,-0.015786930457110084,-0.059675808936575425,-0.019988211738152833,-0.02326526843619314,-0.027573298759929372,-0.03609667003944641
0.24166666666666667,-0.0084399282315588,-0.0408440890478856,-0.01979799490981226,-0.003598967454612136,-0.05566871857464254,-0.026442609554203644,-0.004089576607206475,-0.004545760753873449,-0.019704629434781122,-0.022901965730175902,-0.043084405046972585,-0.04164072995768618
0.24444444444444446,0.005810960648356818,0.03252425186196273,0.02948174313036076,-0.0355002991272731,0.015402159355635143,0.03943959047568097,-0.01556021475978809,0.0165156560610621,0.03088817757864288,0.01976704125190437,0.020938695009731233,0.02246327234328779
0.24722222222222223,-0.020476860499682673,-0.01786451613554249,-0.015924497902472207,-0.025129706275423505,-0.036580711657025436,-0.014104165696610806,-0.018347574638942696,0.008282939483509544,0.002496771784478505,0.003953961468279876,-0.021458704766819988,-0.046461184366028696
0.25,-0.01474172473949411,-0.048060688568551446,-0.03785936988012217,0.016138421720830506,-0.02640456129172502,-0.010059090210032286,0.009793092931385645,-0.0029607542520235786,-0.03684734523002437,-0.01538885224988584,-0.017424236205782647,0.021686086363555603
0.25277777777777777,-0.025447156717624292,-0.00788501164843515,-0.009226794218302041,-0.011815372763971693,0.02060447920705403,-0.025434055168037074,0.009024276656982307,-0.009170819155965827,0.006483381251717832,-0.03791827308569078,-0.021710404001751712,0.01824264126187003
0.2555555555555556,-0.1011248913513107,-0.09833527296500896,-0.1024541266924417,0.0626439352310252,-0.10254249704164374,-0.09276207730660667,-0.01772096722972616,-0.08283121492122422,-0.12643552441286077,-0.11560337413965213,-0.11302143733369027,-0.10530438425134614
0.25833333333333336,0.02850433551317094,0.004235502989174168,0.03729154574113314,-0.01764088781316945,0.020401262688234018,-0.011665819376470926,0.0026095415664093595,0.0025164491837954463,0.019509588018654066,-0.005842673204183017,0.011854748941537806,0.020240597374131343
0.2611111111111111,-0.07570319329628994,-0.041643055651840746,-0.07156283329873978,0.04016596723560601,-0.014890747826398255,-0.006610425781687416,-0.01325185114524445,-0.04303990688359444,-0.07835740156882823,-0.038123990371497656,-0.03926552196347053,0.001905944351082274
0.2638888888888889,-0.10609383354908199,-0.033296711219057834,-0.03219376354863489,0.04822936592927311,-0.07306041808471607,-0.08924243471839471,-0.05739126610361589,-0.07383951109775054,-0.06673159089521764,-0.11144849313060132,-0.08390075590470157,-0.04912280888067631
0.26666666666666666,0.10831112504812926,0.06899582282085719,0.11344102191408827,-0.053457398981122346,0.12759233773335404,0.043740166605768765,0.06716542986655447,0.10279424764609697,0.10891395683137027,0.10557385546342467,0.05845954618806442,0.1428370951342442
0.26944444444444443,-0.009745527789804094,0.05032082226963555,-0.0019597015565530765,-0.037791754935101875,-0.0007031656884802368,0.011353397328068279,0.02110521851454095,-0.010614819238009218,-0.01357597617612329,-0.019491629886682533,-0.011636059450951947,-0.011446007460967977
0.27222222222222225,-0.05077897007270992,-0.017944022772812977,-0.042013063678258245,0.021694521005154545,-0.03335066087385648,-0.06637341601147097,0.006478226945945017,-0.057436220886720304,-0.010831518226441676,-0.03455398995528267,-0.011916913895249674,-0.03322422514371366
0.275,0.05340124225672771,0.024840499057430753,0.019417453366815753,-0.051895935673468625,0.02585969019086103,0.05425399389770748,0.01848372549624791,0.031002663431450975,0.050032200881247546,0.0343948110133491,0.020767677970059,0.0103196701419166
0.2777777777777778,-0.03232588368223028,-0.09399411470331062,-0.05662523158584812,0.06970716949441984,-0.01038334187533603,0.03279658919214174,-0.055765744113203966,-0.08350548386751544,-0.05773697683536112,-0.05090945750652782,-0.03497923264427545,-0.07241040760945441
0.28055555555555556,-0.015945420090726053,-0.047409057578558,-0.01005629585534983,-0.0005562599810775993,-0.01645222275343069,-0.00228373421317234,-0.013703828019114258,0.00427497323508564,-0.020623486613329738,-0.03577467527909699,-0.022126644128003716,-0.042859288523942246
0.2833333333333333,0.10663062151107698,0.095907473807714,0.04800019453452374,-0.03459287722221099,0.07490475088057083,0.07215193724146746,0.05446248612599486,0.049933248567929134,0.09404304986456966,0.09369631912290008,0.07519100665772564,0.09480542434659722
0.28611111111111115,0.09571758453026649,0.08425650093881812,0.06743976862573785,-0.037608710524598854,0.09727950128890078,0.03300151876035885,0.04083854356372961,0.05931113762544432,0.05710548200140486,0.10190843253646985,0.09797304695319278,0.08278378417755654
0.2888888888888889,-0.01483821451771082,-0.01628564049268852,-0.049222618526957314,0.005330014021302926,0.012092265237136107,0.008337521301235818,-0.03623765090945558,0.007421071741632283,-0.015005016862699488,-0.007389796583149063,-0.013209684296208257,-0.0047798871230672075
0.2916666666666667,-0.08177146876959492,-0.07843170012370021,-0.062464665486981596,0.017580582578566456,-0.10994413528932026,-0.057184845057884695,-0.013707400247964324,-0.07368473291226671,-0.1209954467906578,-0.09128478750639595,-0.06982220571755698,-0.050105643767436855
0.29444444444444445,-0.004060854579045855,-0.004586454167006137,0.02172890419719607,0.008058888274814945,0.03275333369650904,0.030126344706379996,-0.002838533826392682,0.015791914455026618,-0.0246313909651584,0.012099555963667592,-0.017785685233542695,-0.014217217651571258
0.2972222222222222,-0.03630352253965407,0.0023543878985635962,-0.01169055484360602,0.028376977221183625,0.002805643120072263,-0.0073096599263724,-0.0019926885531090103,0.005145261679700265,0.007758722269909412,-0.004521831083247973,0.0020140685774318046,0.03353375138517817
0.3,0.05497964972466313,0.08586773567037348,0.1075470753649535,-0.03779300431918842,0.04174670060867358,0.05563447190618451,0.05696187771347082,0.05970824654845415,0.049590894738276936,0.049619049407075594,0.07425495285549097,0.04324179725729535
0.3027777777777778,0.011678264056083002,-0.020201657181152643,-0.016388619775896274,-0.00503831490752679,0.0037277278474089634,0.016914051539525715,-0.009774350976106069,-0.018960677301347408,-0.010333227195038767,-0.039230013859315085,0.005275964782020117,0.002605644721720212
0.3055555555555556,-0.10344298724765667,-0.12163624714630787,-0.07720705601689823,0.01568926564311772,-0.06977125368486337,-0.09342482708959697,-0.07635054095683207,-0.09238466224421421,-0.08931392384156789,-0.1297591580731462,-0.08827132780627456,-0.07777760482915785
0.30833333333333335,0.018946139602711406,-0.008270658994724478,-0.008472914751994408,-0.0002883152649445122,0.0019525677431453717,0.0023062479994934593,0.012425265819343521,0.022418911148136197,-0.021311095652349017,0.033517132318313075,0.008407210778839425,0.010531939837395485
0.3111111111111111,0.01671710580580374,0.008595695601192454,0.027442489310308484,-0.013261450828088741,-0.0063452528983902155,0.0256599445549413,0.06304653749146537,-0.00751610787578599,0.018553261329871434,0.015732894777699735,0.02220403867251885,-0.005834589453211601
0.3138888888888889,-0.027771977234077018,-0.035034370112110656,-0.024680847105397863,0.00297823335886163,-0.04448161039906151,-0.04748453492661048,-0.031212851997024678,-0.011627187099734178,-0.0016322700179042145,-0.004983858154652583,0.011597097722958406,0.010955945912589724
0.31666666666666665,0.013538102661279994,0.011020670026634028,0.03144928327062487,-0.03739042870586796,-0.014154424050846532,0.024660186509080265,0.040576759266969784,0.03700101080247284,0.034317598765802135,0.033849807760086364,0.008505428404786203,-0.014611380307104712
0.3194444444444445,0.022073333833243145,0.027974488767834767,0.0035534031824615113,-0.0034219004782924407,0.05932049266476132,0.04156989022173228,0.023769358492777785,0.02438036667605461,0.034172856638365695,0.03781149765403179,0.068669348223486,-0.009250221294881435
0.32222222222222224,0.02452296177088398,0.0214732509436073,0.04280186562608763,-0.0249844482630324,0.04925953648422347,0.06030466021308823,0.021991226314099412,0.0453868221566114,0.05760429839155037,0.04228151368412474,-0.003086944585340215,0.030538289471316336
0.325,-0.020948129094658728,0.03960042090309858,0.022009086778034793,-0.004404099666357364,-0.03273601788883106,0.009863065526426148,0.0166507174247319,-0.014781822606010629,-0.009441736255662475,0.014663046168374008,0.01855445249658042,-0.04828050679893546
0.3277777777777778,-0.05258055970499302,-0.0530189054548876,0.014511889107538634,0.009927229636909255,-0.046439402462230425,-0.023827166232709644,0.010384172355876516,-0.029607676609710486,-0.0448785467878689,-0.05447618050022928,-0.06358727174319187,-0.05496570778537145
0.33055555555555555,0.06587526818977163,0.09678062738088171,0.03512784603701105,-0.061510865519188926,0.0841100961682617,0.07021583584322244,0.042148882581258325,0.055522327546167226,0.08473740486391847,0.0810332011677004,0.12109728129088576,0.05135332026398205
0.33333333333333337,0.015093836151273637,-0.004847903826229761,-0.005349383475667048,0.024240078703212348,0.013465532769404605,0.008278716016726482,0.008820908469817512,0.008187297604057168,0.02480490218511837,0.011073052800238415,0.0301979418001844,0.0485480402188041
0.33611111111111114,0.0036836561396787967,-0.05054141037586447,0.03284229302765501,-0.0046012139133765045,-0.04079010738441204,0.02167224603428314,0.010693947025083582,-0.017228561262645565,-0.03311072724567893,-0.0024637983140433986,-0.03356906497527842,0.007081359919671669
0.3388888888888889,-0.040922744059365586,0.0011648301786220464,0.002423421346403165,0.011465501633001472,-0.020389956509661664,0.0006392556284340566,-0.01724188088246562,-0.023781009714219894,-0.03314367752981917,-0.022720505368372182,-0.01853687028328923,-0.00013709068247011978
0.3416666666666667,0.041299417598269536,0.008306431658302423,0.043786576405261866,0.005941805988677679,0.046876701049756525,0.04389950298016988,0.015003481109118514,0.028443763726111584,0.03578106626476434,0.06658197187278804,0.03456406777010041,0.03008518774099196
0.34444444444444444,0.05741932293859277,0.03864998012766387,0.031236927591613742,-0.019184740835279178,0.058153740023449974,0.04692739957115882,0.018477483961887746,0.0108016059424203,0.04011635768919895,0.045947026681473685,0.03883161697114167,0.02069401609878141
0.3472222222222222,0.03617086049251335,0.04272966536422619,0.016618432185000896,-0.037664900257011046,0.053674641076893626,0.039442345771347045,0.05695388712224758,0.07513700352655352,0.02560739151930814,0.08161261560252671,0.018359989437146597,0.0337240523115717
0.35000000000000003,-0.004806479260756655,0.023725121319428878,0.02474216574363164,-0.007422216203213975,-0.004500229276536004,0.016767437341075074,-0.00033656932633920576,-0.003832417031338183,0.041659828702259684,0.011861413032242769,0.017708052994397025,-0.004822787319319243
0.3527777777777778,-0.09372188172724212,-0.09283803930940529,-0.0021118252997722187,0.03628456556594903,-0.07864320852109359,-0.07589262015450006,-0.02432741374353702,-0.059503455972088656,-0.09739006560028643,-0.09919354635631823,-0.1007599700424685,-0.112797519538967
0.35555555555555557,0.021428482559430716,0.0751604619612227,0.09342721286041158,-0.04843598614694838,0.019582601812325986,0.02215084680984254,0.0026581618842133857,0.045078142154101795,0.06013790144982775,0.02392917978191474,0.06760565134677189,0.04393182846174225
0.35833333333333334,0.07729778098407153,0.035590107356500096,0.05007662504148299,-0.030257358418164494,0.09179544738065967,0.006716343705563715,0.007820364463884674,0.03364765948021982,0.046542221799905074,0.03940032691794816,0.05850655607213782,0.07033026214667701
0.3611111111111111,0.004137154677941329,0.012731147504003594,0.01998412590900932,0.00479353706648564,0.021847871153889267,0.04556311456974324,-0.006182650001628518,0.03046922961212737,0.027495074481991538,0.022845260594890678,0.039020956733800016,0.02685609188490446
0.36388888888888893,-0.010188051018468872,0.012102303488108913,0.02442744304231518,0.017743353984243457,0.04037065628231708,0.018879461463969325,-0.006980398790002625,0.01023189376124127,0.02351357275697814,0.005018806469114845,-0.002504370129579118,-0.0018547507315176525
0.3666666666666667,0.007498664512694939,-0.018363427443404523,0.021165747504808912,-0.012632768038439476,0.009786595106829919,0.005724583226594591,0.015740226280808477,-0.002970941878712061,0.04100569901747184,0.03455845251052064,0.018835690604405892,-0.003982656116016442
0.36944444444444446,-0.010830647887877243,-0.0010775922101100444,-0.03776832633047498,0.008816602271714071,-0.0011322093017086627,-0.01263590702406742,0.03168107867222148,0.020918166826571626,-0.03468595839087668,0.027884869620970056,0.001253232896015726,-0.0027846778926204742
0.37222222222222223,-0.06710655777812044,-0.01863142905217237,-0.011309935748595271,-0.01442681203209156,-0.03593621109827368,-0.031141852532587905,-0.03018088429469832,-0.04002511148889735,-0.024528227638635203,-0.0471111932307458,-0.07355798982666228,-0.020017766417597928
0.375,-0.01811130628813755,-0.01745039099977322,-0.015381049441666995,-0.014154744889362421,-0.017015894572596897,-0.04250757075041327,-0.018514430918833525,-0.006712390381314055,-0.024730870115412407,-0.019861164782656773,-0.018241716019669417,-0.024627546674557736
0.37777777777777777,0.01122945859553303,0.042657043528614366,0.023156635262111473,-0.004405720334458078,-0.011299860723465085,0.01973038294522322,-0.020870385118503226,0.04818361238502371,0.04261998275079801,0.05629858548811516,0.04907303245843076,-0.021578174718410947
0.3805555555555556,0.0546156715779517,0.0700899594008432,0.03303705879063973,-0.05960933103408923,0.034660182866611954,0.05300525365571386,0.05661207176871554,0.01919801535879085,0.041026976990280864,0.07674363900367008,0.07267426159294901,0.04236843458361405
0.38333333333333336,-0.030065125690826946,-0.05389213793473725,0.003951924438686149,0.02022640834606349,-0.04294573983808016,-0.037667061454287734,-0.02047349458980385,-0.018850068781474865,0.004751584924346609,-0.044755124245709196,-0.028360187550300425,-0.030859791802624947
0.3861111111111111,0.08992937456632587,0.0373091394701449,0.008132146434801198,0.0037937472406218073,0.07248978992815175,0.04238807607617606,0.050072177543228305,0.0668242388844652,0.02623000092312133,0.04441496919999989,0.02172700194178941,0.03352104089688801
0.3888888888888889,0.01776808794514056,0.0023696200336566836,0.010623801931761065,-0.06261950640935501,-0.013627740276035851,0.02382292117036053,0.02589458253566921,0.02912485437070496,0.022328664762278023,-0.010082008365662538,-0.005634060474173584,0.03181985944056882
0.39166666666666666,0.036900422525774745,0.0604205321621879,0.01234313017189916,-0.021690884095613823,0.02409593176231485,0.03098056164357052,0.018118373969858995,0.02198127520607308,0.031065406600160148,0.030764672011157592,0.04968216996197236,0.02120402484717834
0.3944444444444445,0.010543307312665413,0.019379390339333006,-0.0011565850996912552,-0.011855000747757355,0.04764994806643782,0.01877703666388423,-0.006685651067928369,-0.027439070107512006,0.017592848876902094,0.055361924653800305,-0.0031743676882569306,-0.005767737760634688
0.39722222222222225,-0.01794788166514707,-0.009949719683350355,-0.036177655423567975,0.01849867434416647,-0.008745383089082001,0.0015122856245906938,-0.02323522829361358,-0.029083593095356134,-0.016547132729851498,-0.026180897917779833,-0.017679981877057434,-0.03256592086942133
0.4,0.11826105731535169,0.03891268334402669,0.05118912789521288,-0.02600692552456485,0.11911332043950676,0.03960940920126345,0.04354563276529086,0.07987025298128753,0.1109653478315556,0.11471020286409082,0.09656784708898428,0.08413705471090409
0.4027777777777778,-0.049106623159078516,-0.01987682781692188,-0.02882300336879099,0.015419924302010043,-0.021868303842070724,-0.056771076478522746,-0.0012799025623912962,-0.030992241344156096,-0.04846928178738025,-0.0036567052878061675,-0.014568298478890476,-0.0564057277708987
0.40555555555555556,0.09614040754155279,0.03300191846952463,0.03530174161800337,-0.023959161874134317,0.07074825400918022,0.09496100490057291,-0.010663579282763819,0.03807724701200063,0.04769107076663332,0.048548958959609693,0.06045508266337908,0.0606565071853925
0.4083333333333333,-0.081755329766583,-0.010464569749223357,-0.0591050491853376,0.046464524096621315,-0.06894016749139022,-0.08294862805204527,-0.02863119064411916,-0.06254412599033145,-0.07863948066180264,-0.07479998966127442,-0.06464359690786581,-0.05731543929375142
0.41111111111111115,0.06407346345915725,0.07409277868313544,0.034158471994623615,-0.024707465977570616,0.024416517680620843,0.03387795090449467,0.037879697060997995,-0.011900549405142069,-0.0055596998830163835,0.04333272587618135,0.04659082738529042,0.00959086322887184
0.4138888888888889,0.07162584257774049,0.05245015998603009,0.06420293852661753,0.01913710644714953,0.06546925444933382,0.03179904555323741,0.010435482342488655,0.036989481752900004,0.053636260672898645,0.04774927319215871,0.036156771115241154,0.04338945811462579
0.4166666666666667,0.007945936249174296,0.05609264300653709,-0.0210509260965376,0.004889259853353841,-0.022907498011600597,0.01446166998477044,0.046653074289897845,0.0480501928198776,-0.017708208581850838,0.04527120139374935,0.01899261608142972,0.03182508015947402
0.41944444444444445,0.05418257975959571,0.046581573389602594,0.04644158017119789,-0.029351818452485755,0.07016024392916108,0.06275412173956627,0.021837327333639273,0.0439900081508679,0.06690689357056244,0.046852059596869645,0.042764516020987416,0.04693274016795286
0.4222222222222222,0.03527279340452654,0.019521506190490572,-5.154065789769995e-05,-0.0428069272326879,-0.04140699706655077,0.016661092147278858,-0.01892496386281355,-0.03765536210720798,0.01530037300971424,-0.0056945615202225455,-0.022902680752225603,-0.018606689394891077
0.425,0.020213701413068136,0.010094619784676698,-0.003536531326761772,-0.015345441524306929,-0.014271563951046274,-0.004155087987310557,0.00818276495983183,0.015150268269512442,0.025573809205916717,0.010686972560789928,-0.031285634334143525,0.017811464020259963
0.4277777777777778,-0.043321724431487144,-0.05414586713697496,-0.026187536685027463,0.016932566696080047,-0.03402172745218873,-0.00635872162690548,0.011631196360239071,-0.047951126559491825,-0.022757573305179475,-0.02147857031683694,-0.0374818740773184,-0.010873242773493969
0.4305555555555556,0.013431685545716198,0.0037927668046820666,-0.03260782312863984,0.01676603301382676,-0.004431532926426373,-0.018509225413425565,-0.051439889887842455,-0.0017167575357250292,0.018750266043316043,-0.041050691530394624,0.01252748105113094,-0.012334480653555389
0.43333333333333335,-0.06604975726367852,-0.010319297363057887,-0.016009758496924462,-0.02524800198142115,-0.029181430450581594,-0.024933952223675275,-0.004123037906740979,-0.028467083286715645,-0.08765509075109608,-0.0035031688407429137,-0.02090262122802852,0.003739639092008345
0.4361111111111111,-0.04908108434790583,-0.05249148525171223,-0.04141172383578375,0.016431465190630476,-0.03742375112556656,-0.0466459084699213,0.01612896523968507,-0.04752147686332569,-0.0516600326049589,-0.023434740743252865,-0.07037509790475177,-0.04397749938378903
0.4388888888888889,0.10449209684072744,0.04927137940701902,0.09282281369229413,-0.04142838344922628,0.09030160024459889,0.09055378183824553,0.05384392974385958,0.06142421038038963,0.08087863826552186,0.09923968006215467,0.11576733622904613,0.08847498675563556
0.4416666666666667,0.04399453630664577,0.026258149653539942,0.01770436583053993,-0.029511093902042023,0.033994641764940624,0.0019115193522597981,0.07920137588300342,-0.004619406937909357,0.040732695949176,0.016857106073831635,0.057424320958941635,0.032491183357329534
0.4444444444444445,0.04274031251089272,0.005409913239068843,0.0018969892777925944,-0.024880906715263766,0.05263859069677257,0.021876110603574896,0.004350674072152245,0.048160230008729564,0.03167455858143291,0.08115774024937025,0.026309169252323406,0.02536850005629988
0.44722222222222224,0.06452687504882797,0.017210640684361015,0.037909338392092366,-0.051361862978281145,0.04590801396783016,0.05871585685010884,-0.004934519949031709,0.060101857002566594,0.02231852165011496,0.073463208615829,0.05593815011110713,0.022826145714317812
0.45,-0.008656251434244415,-0.019152395661180446,-0.055897102768336177,0.04824600909166395,-0.05718633779626051,-0.024022449383669767,-0.028253019824802616,-0.019850000187673425,-0.01904237476553979,-0.042977120211813755,-0.07252403864164272,-0.04298584672570251
0.4527777777777778,0.009483245334663371,0.053166167638613246,-0.0138702442367994,-0.0036652944975338764,0.050821298307176715,0.018001722095799026,0.011597758916190824,0.024232668047709155,0.035460101570522456,0.039540142079213934,0.02806963697008354,0.060468340347384394
0.45555555555555555,-0.0457663793899549,-0.0435713659043971,-0.03936157798126501,-0.011568873767739058,-0.05597847635150546,-0.01260335524865716,0.007105896431062117,-0.02082441681881887,-0.021383024559633017,-0.04832972544418119,-0.0014207207493378282,-0.03892600394330357
0.45833333333333337,0.04364814541162519,0.006708242995109834,0.019913952213327146,-0.03426714458034356,0.041021783749327814,-0.005838009789602116,0.03522500006556706,0.013159012510073785,-0.0018753840537624328,0.0020003041743483913,0.03518912992571181,0.03320539743549933
0.46111111111111114,-0.035624311611189216,-0.02630983917070346,-0.020919574281494466,0.02025830113889731,-0.04395927801029918,-0.024330308572846668,-0.025648303097501213,-0.028973311695832532,-0.060547684991558076,-0.06565452863928628,-0.053957493264564164,-0.03091839662473698
0.4638888888888889,-0.03450800463828062,-0.038404557196250175,-0.014598453278578012,-0.007742836909431158,-0.02564679668527997,-0.026715765550453668,-0.015994713356393436,-0.06647589033263224,-0.011013080476629755,-0.05393509175083053,-0.05765230441594049,-0.05808418884633987
0.4666666666666667,0.07354033225958188,0.05567775078219625,0.003156910706269847,-0.04722098323272303,0.061924039236583954,0.05678517766217119,-0.0005453493937123272,0.04868349988305768,0.053665638399379434,0.06501854168683577,0.06793109569217312,0.08122244690988385
0.46944444444444444,-0.021934291946486193,0.022490876733947326,0.03670762142116143,-0.01684703106757318,0.012361309465510726,0.013295074412277952,0.0018280103405204817,-0.002841734820964935,0.024872178930557085,0.007229399856673286,0.009763412424701173,-0.0012832067765773131
0.47222222222222227,3.375716620888057e-05,-0.018032156895229526,0.02534244329714489,0.003022098264768516,0.009199079547219591,-0.001956362649957811,0.020746778863332396,-0.023513202456692493,-0.014513373687674299,0.0016535359178567726,-0.008651771414703902,-0.013716321574439477
0.47500000000000003,-0.05408118431559321,-0.05300679718404822,-0.04758181308039937,0.0369467567762154,-0.09063298427499879,-0.07163702205814981,-0.02398225062083665,-0.036796362575347144,-0.09616998545109656,-0.10360128176362535,-0.06877016883903848,-0.05796091378351579
0.4777777777777778,0.07214337619445832,0.01687396816222889,0.063927649368975,-0.020345885249029003,0.042808464143223236,0.05663428353768143,0.023081409876600026,0.022502329860182416,0.05308608614353148,0.010392009439402501,0.09225113285901365,0.0344207996975465
0.48055555555555557,0.04301305273328967,0.05864612495703312,-0.0067365922195525806,0.0018262553332809538,-0.012321951152938986,0.00046098385825539545,0.02829640864459082,0.001614911100617105,0.050689014541075536,0.03233120516382388,0.0323106917820215,0.00416423927424249
0.48333333333333334,-0.0045331491924235565,-0.020510318497158328,-0.04328693864683726,0.009438764017334933,-0.057676590219660845,-0.06455362485295084,-0.0031115908240578107,-0.022145722000051497,-0.032525519693573916,-0.012302255420087501,-0.01518378256305865,-0.05197216382922648
0.4861111111111111,-0.019690220986699484,-0.057944118191507035,-0.010834350353104386,0.01103095646864733,0.015626278594316402,-0.012565066540171442,0.008443078091078113,-0.005925199400390339,-0.025218250592602447,-0.007247023211826543,-0.010634208706415654,0.031792083600886735
0.48888888888888893,-0.0644981918695944,-0.01125946860286155,-0.06676688803017583,0.027630866569748086,-0.05276627877757337,-0.07085309061155907,-0.023056138307363066,-0.01135319164880571,-0.022695260257814005,-0.023137300232967475,-0.08513185394005837,-0.018854096440926314
0.4916666666666667,0.03093383839846318,0.03992200810413864,-0.006202652232017401,0.005488230822817006,0.020755636707273588,-0.0014437975094085016,-0.012712891595403683,0.02754476403557106,-0.022077699208703876,0.00638444895714552,0.0090725436183046,-0.004355514618231571
0.49444444444444446,-0.10266174759930774,-0.09378408236981667,-0.06400497687056408,0.023284466261878092,-0.08466054443561413,-0.054460406676296896,-0.07721249311671434,-0.10516707071996505,-0.0741038701088583,-0.09457133735902443,-0.13842849574118796,-0.035764306203552705
0.49722222222222223,-0.030903339844362804,-0.05381929522686488,-0.04262165092177597,0.007839026227766709,-0.04834882929476756,-0.01333355265587794,-0.03558341574791145,-0.05223177018746937,-0.07812302566555504,-0.06730252583564753,-0.06080209854326435,-0.07506578469167598
0.5,0.03812211774485037,0.06344820544862981,0.005355414229539283,-0.03828616774275006,0.030208794147649924,0.018786693341499038,-0.00093472880406913,0.010526912737475642,0.08726200421242489,0.06716422340286482,0.033491282447784224,0.010861869096857435
0.5027777777777778,-0.04110275789570877,-0.01862327966475539,-0.019302033361273854,0.029220446492249842,0.0009067507461201722,-0.007358770364285949,-0.006974036214723571,0.008184271938605702,-0.023822681878490508,-0.0007924857207899025,-0.03960187621267273,0.021195376059079604
0.5055555555555555,-0.04387948404762551,-0.04611440745456457,-0.057179674171996,0.0045669865710895995,-0.01413489519124907,-0.035830650387598605,-0.026071745177508425,-0.03988558702678133,-0.049861507801261314,-0.0330335194838238,-0.025074207252313116,-0.034719120451453034
0.5083333333333333,0.026508621736272112,0.010978302330823033,0.03175745147539916,0.01133316293254093,-0.004887341122514297,0.02986814236869213,0.04272521215996476,0.041006634903066344,0.01930253516403529,0.01300463386674183,0.06563764675411682,0.017478441576443928
0.5111111111111112,-0.008292654028658402,0.017942699999361215,0.02195875670974825,-0.0011078690550374113,0.026912188861450314,0.01991448676720251,0.013493572155552339,-0.007427250267902651,0.034090964196772655,-0.008093659592459581,0.015646246020297717,0.032001796771537916
0.513888888888889,0.04855622752847231,0.03747264348588357,0.022706686353868057,0.03730539791128229,-0.011854472952252771,0.027435448931444943,0.05017643209405613,0.0027927755090521693,0.03796935274703986,0.024459902387567047,0.05400907276032005,-0.00921985619678612
0.5166666666666667,-0.028877963547261336,0.021932869963260763,-0.021860946548654336,0.008196252380841759,0.006007197881765682,-0.052496169515007754,-0.013212375839229362,-0.01723486292357415,0.01198699998410359,-0.005857884005336445,0.004480505522506615,-0.03165754328278049
0.5194444444444445,-0.02759572029629686,-0.011643996252738414,0.01863114321588894,0.018959668395301898,0.024052346351278144,-0.029066722588132497,-0.0068326097911902365,0.007011309222624161,-0.012544748876077969,-0.0023360819265534133,-0.02781507191651707,-0.006034875343859916
0.5222222222222223,-0.0008921949748549075,0.017969365822144513,0.021855400446172128,0.026273627499794103,0.012301861938992558,0.008587413495315844,-0.002239563698524059,0.021670962205577377,0.03645999167231523,0.019356191415422268,-0.011617192113683611,0.019850241134600155
0.525,0.020777927854290966,-0.029781118485493353,-0.015493599059599263,-0.008265236113751767,-0.01421579483807438,-0.027850385251895142,-0.048251133711499056,-0.0020852168345150864,-0.01887889960440101,-0.0020456824658210805,-0.0029934381010234493,0.03648013846090664
0.5277777777777778,0.07441873625819184,0.06147783415718863,0.051617945578970356,-0.04476825798968022,0.060889689757771585,0.02952877541971314,0.049740494492525586,0.07169095374211717,0.051445727219263576,0.05104129211034241,0.061739104280808144,0.03203236029242523
0.5305555555555556,-0.05636347522126755,-0.06767840609337111,-0.06784498150837928,0.016059975860587473,-0.02186562110417545,-0.043881955505950754,-0.008858593212243596,0.0006372506459274563,-0.12507534457284814,-0.09305290272450853,-0.03484442709353176,-0.028130238996259004
0.5333333333333333,-0.10827353720816993,-0.08489243818766787,-0.054234000438549465,0.07169350977086261,-0.08410323307521211,-0.060941710741885605,-0.03239040195560797,-0.11052554568762848,-0.11797783940376434,-0.08300065819231187,-0.04689264024417387,-0.1006555594205791
0.5361111111111111,-0.013435553863362969,-0.017911947424978984,0.0009445302226962389,0.03969821925945978,0.0030597236717142054,-0.0004989497450659571,-0.019058905160995947,-0.07312019073187243,-0.039330075897117976,0.012726517664979427,0.018354910339378236,-0.014115495312621745
0.5388888888888889,-0.03011989952492184,-0.026993048602703285,0.004037837781310536,0.025756963401509736,0.0030736194027797016,0.02897246013403134,0.0001396748695196657,-0.0063669195099743505,0.004933859565280665,-0.008304664403882361,0.005832635324388418,0.01197280831473959
0.5416666666666667,0.06397332556371704,0.07114426663319964,0.04153416166913742,-0.011456968765684191,0.05382379545393924,0.031760496170223224,0.030272325165124302,0.06124584518144416,0.08466409236908132,0.023069444498679037,0.055275752917068634,0.06081260126735159
0.5444444444444445,0.002536627317210766,0.03304947454073187,-0.03344561279941325,-0.002392843740583896,0.012637326842329197,0.013803009483115785,-0.0035496253729752937,-0.016966077171824988,-0.010440839628835841,0.0027914215891812894,0.013003021650767048,-0.010482875113461125
0.5472222222222223,0.0015221456258046055,-0.017756403824542664,0.00023486906574699136,-0.021982396321631726,0.019466893399865105,-0.022405275975981714,-0.023596986412363703,-0.016539265575319463,-0.018830620968184008,-0.015723044295598995,0.025360831801679945,-0.03529829547732387
0.55,-0.0551789356793653,-0.07550586282724298,-0.039166669021977234,0.017864381935940487,-0.030717165869706103,-0.04171406954849953,-0.041955468633767506,-0.07372679540921734,-0.04959311751869188,-0.03909903803418037,-0.08265604981837021,-0.02237629320150681
0.5527777777777778,-0.1325100404176502,-0.0570031615325305,-0.06037234084343693,0.03541815813260475,-0.09523399138479009,-0.09321108675639674,-0.060241078901138514,-0.07612700357155396,-0.06857065205493097,-0.09466112686559842,-0.05770637804682262,-0.08935781553032088
0.5555555555555556,0.03674257884135979,0.011990257630343816,0.052367348594875386,-0.022023718218640177,0.0062777812221096185,0.03723570861250267,0.03426895332221909,0.04553958943381026,0.018554371002955195,0.0810853343576345,0.04412192318208849,0.010999533128364235
0.5583333333333333,-0.07934163758469484,-0.08957653973121299,-0.025739128191238737,0.040978431585524513,-0.032827566606256714,-0.05932280914715734,-0.038742748154980876,-0.06739789224093198,-0.08491118220955556,-0.08226652572359773,-0.0844048469343786,-0.06766588412386336
0.5611111111111111,-0.04555103866930067,-0.05396809940425517,-0.053186833067011274,0.001526902051934828,-0.04923570132806384,-0.029171939948941416,-0.06686876167011685,-0.058665681072011276,-0.05898772854129615,-0.09241230704835149,-0.0666913969705846,-0.03935468318056248
0.5638888888888889,-0.11256113691974882,-0.0319962165063454,-0.06430749608280678,0.007001028606709113,-0.09175867468267923,-0.03674545194313501,-0.03076203977583268,-0.05466200530883815,-0.10488578878220597,-0.091261452320538,-0.07605356940218977,-0.07380431698886743
0.5666666666666667,0.06352602193945935,0.004663633095565436,0.051582923600358405,-0.00884265552833241,0.023589202966835428,0.013896835433360752,0.0019775936472616155,0.025735540034828457,0.027300861249212188,0.024081746490511768,0.022022993315600772,0.031482085702539436
0.5694444444444444,-0.030137993650844897,0.012973620692874596,-0.007165130128489851,0.0071848637587920375,-0.03085601850116581,0.021066358170057094,0.04182668264505307,-0.011910936172685554,-0.024710663284313907,-0.034904619663547486,-0.013153047705027307,0.009495048729334005
0.5722222222222223,-0.08637102417693081,-0.10001364404895273,-0.05446616220332674,0.06019158430443286,-0.08693801635038274,-0.0701157078516285,-0.022857571214022078,-0.058294874465236776,-0.11670714864279326,-0.1009514120961356,-0.09087612298879182,-0.08675539131926258
0.5750000000000001,-0.07118606668953127,-0.08419136103559859,-0.0774810545414792,0.02660144427733292,-0.09288323119046851,-0.050598024968996964,-0.048090946678518494,-0.08545673490995315,-0.06735158841278192,-0.05408409294064258,-0.07773219722520812,-0.07855745422626287
0.5777777777777778,0.06590073779238408,0.057668737803812375,0.002213180458982448,-0.021549199812364733,0.0539265831690181,0.05168942644573107,0.006626219634842386,0.017219576890674285,0.0386479472396072,0.05617699636289087,0.10047001323177462,0.033208247513846205
0.5805555555555556,0.007481651373609063,0.0029553270303177993,0.004524499351588943,0.014896910533911865,-0.012543967781301454,-0.015523298106047866,0.018979065975588242,0.03978148580974956,0.024790806540056404,0.025868596471990475,-0.0014259844920995815,0.012494418427949745
0.5833333333333334,0.03947298575982951,0.06439997315069243,0.06377419363553181,-0.015513110747107357,0.042666316733327485,0.021556255062495505,0.01796843065604515,0.04305926451987957,0.0299229426045543,0.06336667524366786,0.051605373208470674,0.04755700998891427
0.5861111111111111,-0.07468995528575433,-0.022304348133163125,0.002989505527629256,0.020766905897282834,-0.056879405704763256,-0.02803979283143338,0.012160205615730328,0.0015477989087765189,-0.029989818868055563,-0.05088974169341729,-0.05389319209097046,-0.0204497848884145
0.5888888888888889,0.026011390908806137,0.0328921471523115,-0.0043079681202903355,-0.008958735880256558,0.017807485409805986,0.006616690086261279,0.034269046504859874,0.04685828496547633,0.042154893692726944,0.035590990442586956,-0.0023099383345044702,0.019713659048685966
0.5916666666666667,0.07609535744948218,0.03996462790991587,0.029531254443695785,-0.08160203764816536,0.0031110362500186423,0.0868993332024971,0.04169666627384401,0.05639525836506054,0.0722951440236498,0.05646373773245734,0.06678041747045985,0.05027091993285248
0.5944444444444444,0.061591485461100645,0.03701398741079084,0.03852567954259593,-0.026325708630497727,0.07263655651621287,0.04202855932966012,0.026235670325600917,0.04630572214334617,0.06610205080039538,0.05111145718834711,0.06973600826635948,0.033500149583166064
0.5972222222222222,0.017574961453146725,-0.011116500258403434,-0.015450490083787825,-0.007974428439108857,-0.0009075077328453545,-0.011914945364043172,0.0010856597211101322,0.007523815836738618,0.014351420269039485,0.006884255932105515,0.005161929831488516,-0.01670663604276679
0.6,0.033735234892840554,0.011780265462043197,0.05366830868776218,-0.007693566247865523,0.005101206024844016,0.04673810587006344,0.027772314281950396,0.011714856374405797,0.04870635650998062,0.00990686013797928,0.05117850182821124,0.05633277825361199
0.6027777777777777,-0.08109722642527954,-0.06866996657228013,-0.038405893582022725,0.0741891036560488,-0.07854135286093526,-0.0974454955073259,-0.026559851648146143,-0.09059050986342537,-0.07612017623850928,-0.061027321428634006,-0.06802696876928695,-0.09121806342393551
0.6055555555555556,0.0670728987808614,0.03907744564332889,0.040548488644693535,-0.030800015752076554,0.05345460039821257,0.008691332839131677,-0.012645180299299005,0.03398401203280343,0.07380665014987683,0.05427272785937507,0.08411015405545103,0.030217711012350514
0.6083333333333334,0.08343233244007639,0.06019899077787686,0.039026834574393814,-0.03281789654605388,0.04462213479514833,0.006330450226955164,0.042711298240777185,0.016818652652547554,0.08034283421325845,0.02636193942243025,0.07299946123894153,0.03535475269500353
0.6111111111111112,-0.005459297006885935,0.022872201320865093,0.014734200893975086,-0.0008851248137771352,0.026679143872970087,0.032111089515434586,0.01952935965042779,-0.013698878285498407,0.02188588500388239,0.028596186040397677,-0.021261477331522144,0.008803771437299069
0.6138888888888889,0.03806433927577545,0.001376019765950599,-0.005531514677579043,0.05198168897779558,0.028128134143136335,-0.031291278381883454,0.020658133366776157,-0.01814848772009043,0.019622060450922234,-0.017963521399527185,0.022052814823599245,0.048956279715417064
0.6166666666666667,-0.019824653535546376,-0.031059533933566516,-0.028529434232628437,0.005599761317027883,-0.010284928108294525,-0.02568655115814407,0.009431756510323082,-0.04132201053396468,-0.00994892015756051,-0.0400416806125215,-0.047958663998947444,-0.03432590219973072
0.6194444444444445,0.03362519033098495,-0.014485559774395567,-0.01297267853873037,-0.013712910035804198,0.011625129826957884,0.019727649947350833,0.027435995821460796,0.020109719191636687,0.02246629692032642,0.002062170759233397,0.030128094572536488,-0.032085844843291245
0.6222222222222222,0.02346102373361361,0.031153975411347568,0.003891108369204952,-0.0022865143351413365,0.022939999311404263,0.04209591519241987,0.016604519017997227,0.045277897767162956,0.06321605491650639,0.04262120672535746,0.04086107055138764,0.04496315163476069
0.625,-0.025810585872583763,-0.03743736689531188,-0.04796742136150191,-0.01887469550583347,-0.01312478397862158,-0.02662904905807858,-0.028208651267917148,-0.032940387692635006,-0.01728650601260131,0.001467032350836693,-0.032766588516120035,-0.039196036215601714
0.6277777777777778,0.011012581784284766,0.014489332452162038,0.03859931995708923,0.017750854004667166,0.0379174823314431,0.04916598603943548,0.02690197781584215,0.016490767388296135,0.012423183752458239,0.04024192987476062,0.029995209398195055,0.014114564372388635
0.6305555555555555,-0.015153386378761303,-0.006950124665115832,0.011474160011781847,-0.030156488036895274,-0.014783304280669757,-0.0006450841973509871,0.01636845592232632,0.01574953774870332,-0.0009275086141400182,-0.03248743016473981,-0.011616324695992882,0.03426954532936811
0.6333333333333333,0.08815242670964166,0.06989757923616224,0.023351069353262754,-0.02960819792087071,0.03450767894641745,0.04764915765551468,0.04790530563098241,0.03374836517260709,0.04928929317849083,0.02812881408167908,0.03864648080012101,0.07005953665503695
0.6361111111111112,-0.05812588363405997,-0.032356537961238996,-0.05138671917589785,0.03668816657454482,-0.05632136884273682,-0.032117430858313825,-0.03767127398841217,-0.011476279707764013,-0.06157361319967791,-0.05300818905816761,-0.07666498869029967,-0.03705166821501264
0.638888888888889,-0.02205443274679124,0.006493164921598219,0.0318745898493406,0.0009932896083361979,0.004889491323156555,0.008001374112832606,0.008613935671730768,-0.04242646071160293,0.014770053958549087,-0.005878139762771803,-0.0019628940703038528,0.003948816351613101
0.6416666666666667,0.08228180747918801,0.04987895183272746,0.05531453351523462,-0.015729756143348872,0.07070824800764898,0.018115685630849226,0.007361019325035984,0.04840371989149006,0.03445241146158923,0.08200816074873118,0.06589469322532848,0.04493979063895798
0.6444444444444445,0.0023218597381968655,0.0043760367568643765,0.025593529854507892,-0.010128099788247516,-0.013402025631895608,0.0202621355596626,-0.00434522223159315,-0.009523151813749168,0.01815929854452691,-0.017476720019103647,0.0199502829382581,0.00263638819342044
0.6472222222222223,0.06265193767512532,0.06584832886315242,0.04945490036949085,-0.036334848273392104,0.07414444640027372,0.072289339879308,0.02741610257218837,0.0563804639447016,0.09039393624485402,0.0965128706301496,0.04663862058063806,0.02990427612937066
0.65,0.038744302561328055,0.024204394731427447,0.01655612543031701,-0.06744676045966086,0.07070836075360885,0.026652603756366026,0.012871857821182286,0.032859639437181155,0.03983640621508651,0.027343149805607356,0.047922552087315926,0.026681818710739005
0.6527777777777778,0.02665677464098603,0.01945069592484095,0.0031539839757907836,-0.019084803820471886,-0.030056564923949432,-0.008512490157952121,-0.039977799665926565,0.0033772936453948083,-0.02112973056038048,-0.019967643447382603,0.03904745637927819,0.024065718131971375
0.6555555555555556,-0.08623944738057984,-0.027498436700856128,-0.03629838702215967,0.006369675650547378,-0.061076967103110134,-0.032964169038499164,-0.04293920534663638,-0.08332457027222911,-0.0633229859275808,-0.08813346931325824,-0.06670777408806104,-0.06297304946915623
0.6583333333333333,0.04658042645774334,0.06816271574802557,0.028573546329382606,-0.08069288726785538,0.05819122268916566,0.0134185927476477,0.022950296413544357,0.046611071406260966,0.061917872930275925,0.036361649843109675,0.03463131831094401,0.03180664963821838
0.6611111111111111,0.05870866477548991,0.01580080617796679,0.009388178014659812,-0.02378779257753149,0.03981026650324538,0.01697929669216276,0.023955685968393134,0.06563393476525349,0.028428257552514474,0.05022059153399,0.02783672487308287,0.06913508069483255
0.6638888888888889,0.024010899392509576,0.017903133469295507,-0.00010206654766254254,0.011770464205463769,0.008626661871271656,-0.015449173044551488,-0.011067512602744986,0.035425326809065134,-0.028728823952179964,-0.03656783686993053,-0.011884434337507068,0.00721432755614139
0.6666666666666667,0.12276090492226223,0.0917771769667343,0.08849264583443657,-0.10443586862993978,0.15586418302210459,0.10620410478860338,0.0735993942251952,0.15928298804776428,0.13081601466766873,0.15057118905965663,0.11310104843249527,0.09364652895676442
0.6694444444444445,0.04832243454005581,0.030063881831595293,0.04441478009124047,-0.03371376005435601,0.05501298298522224,0.03423505568365874,0.036895969122902716,0.030379398124940067,0.061079941926327014,0.04937814168484598,0.0685738978610817,0.0638033830138883
0.6722222222222223,-0.06641132030552482,-0.054850283784279585,-0.01941507275053161,-0.02282023953602388,-0.053657851888292314,-0.065389335769234,-0.01866652182523896,-0.05828606385124545,-0.07149809729247675,-0.03805347126292137,-0.021151654350213683,-0.07103635061302313
0.675,-0.025417083289013195,-0.027925618518264292,-0.011947710328514773,-0.04243924923184358,-0.013978208547854181,-0.03821670764546613,0.003972890718389253,-0.03158315448427936,-0.015114091332507709,-0.0020663899691235484,-0.0019208496810353233,-0.023895201074471493
0.6777777777777778,0.021216696924959616,0.014124983863032306,0.008006476032310398,0.0013164392166190495,-0.01225559160961139,0.043945371002890185,0.0041957861971324995,0.03402083665248716,0.0026575070528107006,-0.029161381158047825,0.021252336970434823,0.0013117344588332777
0.6805555555555556,-0.056399925474288674,-0.03874389343798764,-0.05890825858234089,0.03565708021882917,-0.016741112999836858,-0.04362792733011209,-0.04433429957535657,-0.06301264359560788,-0.0013857828322766247,-0.047916225797044146,-0.0763493403055904,-0.011578533917142617
0.6833333333333333,-0.003944239204159868,-0.023409154521693117,-0.011528756203514097,0.016266289315762166,-0.014673611216674718,-0.054774004539439564,-0.001436255498076456,-0.020881713214287393,-0.01857877891785113,0.02897600663224315,-0.04609850594149994,-0.053187612749750535
0.6861111111111111,-0.016695912459798803,-0.021308787145446716,0.01917933328847723,-0.005968400818822841,-0.025966912070928813,-0.017514489291780837,0.007156841430012963,-0.01712703610700677,-0.004140739115395782,0.0266429314663558,0.0024406406517558247,0.01022542417187603
0.6888888888888889,-0.02641292717927198,-0.020762665102526043,-0.015991560622458035,0.006735229383179689,-0.028526940447978752,-0.036230268249108175,0.005814825635281795,-0.023885133806286922,-0.008345056390708342,-0.02566007724934011,0.0010144892326841258,-0.03201072356786047
0.6916666666666667,-0.08789909924665633,-0.05743637164536793,-0.028837737047797015,0.016117141342995446,-0.0842934985786742,-0.052851248161311405,-0.05934777183483467,-0.024402054729767118,-0.06097431953681776,-0.04187636352207125,-0.07157201433927962,-0.046267009627264766
0.6944444444444444,0.08394923097274468,0.06215506923808417,0.07774703445212408,-0.031107000658541783,0.08326302350569571,0.04042430530798545,0.006608695460148174,0.059228475295358206,0.07418196520043584,0.04157082137967009,0.06154838685934555,0.07873462082903313
0.6972222222222223,-0.026367136431422373,-0.020043685501956798,-0.03647030758403563,0.005457626001230864,-0.04669856481789113,-0.002466756504685367,-0.01820715909594568,-0.003599440641150378,-0.015628234596729785,-0.03294907105969034,-0.04836506944094931,0.003440762085577472
0.7000000000000001,-0.033363688928233666,0.0018323642538413238,0.023114094644413708,0.004325270579460106,-0.0021868978850962647,0.011584762401536055,-0.011806116805968497,0.05361921419380973,0.01294052114508035,0.012159275882841153,0.0005402590190343681,0.003484489863945077
0.7027777777777778,-0.0008550465851932115,-0.005791720002458051,0.03538539549874779,0.008881312808315021,-0.01918949295545526,0.025966372175577672,-0.0314427230713041,0.013714629399126873,-0.008422016778606574,-0.007877634794847873,0.02846250849182917,-0.0183276192390611
0.7055555555555556,0.049502005715050125,0.005372653115860586,0.04128549645231552,-0.01872587860381271,0.03131618303359568,0.04396113064146838,-0.001267512783230753,-0.028793663454087633,-0.01916835033729565,0.033392884482649744,0.010723832812284305,0.006793607133358726
0.7083333333333334,-0.0021436256140096553,-0.02434460860600735,0.03987937658406378,-5.4780838033826945e-06,0.022660985564698234,0.013417824912068513,0.015838468676073057,0.020367361517904,0.024046528818146416,0.027066589391770694,-0.007585828303247116,0.014029344197078063
0.7111111111111111,0.0038174243986189745,0.02590707786449542,0.03983772379424674,-0.044589387359226615,0.05304957778304996,0.035256208457821514,0.06471658638154063,0.023908364977659687,0.012875133953240978,-8.748878478807495e-05,0.004895675518363812,0.017875637863491386
0.7138888888888889,0.03441756119433104,-0.00927922138759976,0.005737081161020674,-0.01918063994243678,-0.011152384312764338,0.005195401810814239,0.027541665288663426,0.008928644750030672,0.021487594664031127,0.029185413176891287,0.018007709713847006,0.0019957703971859517
0.7166666666666667,-0.007390483709430209,0.001312161445626259,-0.003600051921636132,-0.008078771493848107,-0.01812651268353937,-0.015024882880559316,-0.017573808525255745,0.012583936529084629,-0.010661154368354549,-0.025408313716596662,0.0012310674368793267,-0.0099690800030909
0.7194444444444444,-0.021694483681304565,0.010473694836414102,-0.02078663504972045,0.027930272617799838,0.004501984701057893,0.008325360763925947,0.009493896021677602,-0.0035888090432024226,-0.029987180205141746,-0.029119913619849783,-0.03069344073448562,0.02733209053446571
0.7222222222222222,-0.0538046910391438,-0.03589958340375237,-0.007051776983982846,0.014314142074111061,0.017375553756593262,0.00037119657324354016,-0.0408917571808088,-0.03825045640240546,-0.059045686492347496,-0.06670368134321761,-0.03444152932282723,-0.00573505226506172
0.725,-0.06269896100238304,-0.05064713847244304,-0.012875205986231621,0.03508963355621018,-0.06000249938489777,-0.07349080413922315,-0.013983391799472625,-0.07147589596611634,-0.06863270844552695,-0.07120401822486434,-0.02691111407895004,-0.08823709359501317
0.7277777777777779,0.014231726842055896,0.013307764955776138,0.01931833964783271,0.0020351470875338675,0.0023961642398833546,0.015993502882184173,0.02353070152802389,-0.01894452708305943,-3.7244486283574685e-05,0.02042116360303489,0.02538685765795025,0.003246484271551913
0.7305555555555556,-0.04447316936464004,-0.06225303714606706,-0.0668200270206658,0.0424961481125477,-0.07470362779829534,-0.04343565646814215,-0.048591930266833346,-0.08850836461923582,-0.09141663945207501,-0.09661535250863543,-0.0957754902571644,-0.02269528241967822
0.7333333333333334,-0.026823874568361987,-0.04407684770418965,-0.018615765996104962,-0.0347454865418315,-0.05639457952212349,-0.034913789104777514,-0.01695086441402464,-0.03775015556591022,-0.04288411473576099,-0.05977513263703411,-0.00864632546591328,-0.01807348938685451
0.7361111111111112,0.030566979972464273,0.0258237294972497,-0.02536691204711557,0.024836410500779317,0.022613182442066636,-0.0024474805141848667,0.006888869590764462,0.04907472309296021,0.04631818124340463,0.010544420710304089,0.03698685260884452,0.008685899573882763
0.7388888888888889,0.024242093099509216,0.041665996348399355,0.010763687565811763,-0.06480167747867512,0.027838738343827413,0.016952349493103664,0.014340287670866972,0.016686083608133225,-0.0035289808473484285,0.0050330031305891795,0.019807685798984002,0.02853471749505525
0.7416666666666667,0.04498004336373881,0.04323679160631885,0.03665001975117774,-0.03797470518421619,0.050204569185797306,0.056300422774442756,0.015258393212076728,0.03132344102466597,0.016637752456968122,0.04059100894432942,0.06220782223410065,0.013454575492023085
0.7444444444444445,-0.06630834627112181,-0.02805650109209413,-0.03607904136971752,0.003492973840479738,-0.05323824100627868,-0.06456967143553076,0.0026806058535566654,-0.06420183874435607,-0.045571195758573074,-0.06014247676095786,-0.05377156475165376,-0.061960307810247056
0.7472222222222222,0.04888679977193104,0.04276882278297736,0.0062558819726184975,-0.011202861999820206,0.05228357879036122,0.05379361656608591,0.013386195046073126,0.059512709836445465,0.06894158986530877,0.06042302136703931,0.07766189346363153,0.06600083216699298
0.75,-0.04794748959620014,-0.06946264263388627,-0.016675944616684965,0.015020820982127672,-0.04409499227337979,-0.06518133389719427,-0.024893598460548564,-0.036822660009873956,-0.05428014341873791,-0.07392241265166595,-0.040965244340352126,-0.07336977684853974
0.7527777777777778,0.05261822486202035,0.040418318131464376,0.009490402818209589,-0.01356061371893024,0.03497742194362208,0.029617505415055246,0.025707897446856826,0.03147260089547358,-0.030150437904336004,0.07128453239190566,0.019628756097332525,0.01218451978207909
0.7555555555555555,0.05242938271902406,0.029748418579984486,0.02129924323533084,-0.010080672698483829,0.0068332383401904315,0.010995573361642438,0.01685844807840063,0.006468490689435271,0.011155704968679611,0.02718238540273455,0.013378085372979086,0.0178650555271327
0.7583333333333334,-0.031180791977649523,-0.022048703779252145,-0.02467145112465664,0.020155724126039352,-0.036876154483868454,0.0011268721015363047,-0.023112000925596395,-0.05938720895868979,-0.010073975917612998,-0.06191644607005236,-0.05912341665576602,-0.025846913271589663
0.7611111111111112,-0.06665038655249356,-0.09200590121318299,-0.04631119926368265,0.039764311386445754,-0.05765700232953275,-0.054517447862027335,-0.05310453038143831,-0.03415203039907356,-0.05231132221005075,-0.10544524682687739,-0.09377662941944775,-0.07982452150016646
0.763888888888889,0.00582990245112828,0.03270095391789224,-0.008280002122961556,0.018214185166294035,-0.04230382241498342,0.020436488125802024,-0.008103138151767298,0.009860913792821627,-0.021984156438201286,0.032015922268424514,0.006900486206385462,0.02492956242537816
0.7666666666666667,0.0070473776952509615,-0.0170198593039319,0.00840419069433602,0.027473978348800752,0.012059119194512628,0.021600299911762558,-0.003723601618306694,-0.006283876477587456,0.00574779951901992,-0.0041311995425487615,0.027172329564956056,0.019785671445677652
0.7694444444444445,-0.036106164423415084,-0.015588041971972855,-0.031196378833362147,-0.01160139983128414,-0.022146505738232906,-0.01063696269917381,-0.00891473156667659,-0.0387102037582458,-0.010580203889243169,-0.06544021852139012,0.002669900432619915,-0.04759904763096415
0.7722222222222223,-0.014700904901048953,0.00029810537151700456,-0.0035959631452993418,0.02876047914611364,-0.025609202466330805,0.017659277343844412,-0.0002225854128370796,-0.015869951332763328,-0.0373000766625292,0.009917378102332841,0.0005775791311851269,-0.0005297502379489442
0.775,0.058863990389387985,0.03572959508332456,-0.01172875795402957,-0.020312212025166695,0.0251531203905093,0.03572531577189733,0.025577646695081654,0.0333886227323118,0.015572493951444673,0.08819048874961936,0.07407341288798366,0.028953004181456708
0.7777777777777778,0.09178421188028485,0.05131784625673918,0.03199236962978565,-0.030784712992176107,0.1266557843896017,0.05868246304571742,0.04709063311885023,0.059271393474034414,0.07623103048011944,0.06552746684595231,0.05440879436340952,0.05280143643551411
0.7805555555555556,0.020333430958025554,0.07396989196865981,-0.046387106888887725,-0.0198565657308362,0.033599239361178417,0.05339797221974812,-0.021392429700214873,0.030444299047363378,0.026549751410046146,0.044244387368873636,0.04721849879727669,0.023850615366187
0.7833333333333333,-0.010633904552978548,-0.06480940973647357,-0.03540629257965202,0.016648099428257995,-0.04429039582964986,-0.00011418932366252799,-0.04553895628210598,-0.0062330652723986656,-0.05327381122443782,-0.010569939154276578,-0.0018304236084931702,-0.06109049711050084
0.7861111111111111,-0.050887643884006246,-0.0307341511343932,-0.040583479456774436,-0.015026648606544946,-0.054812967385489714,-0.054976456278491063,-0.0047857437776538045,-0.04453177140856628,-0.09564116294963437,-0.0964446525113645,-0.0228571747326339,-0.05923426233993237
0.788888888888889,0.010278362088319327,-0.006503926770292841,-0.011593109512625896,-0.006795722159511375,0.0020090857275565435,-0.013171557721297614,0.04289563645155995,0.021124446785236718,0.0015727710964785113,-0.00037714308966840397,0.0045337405347966415,-0.03634642507387812
0.7916666666666667,-0.08560828880151711,-0.06574165346813723,-0.07732235125095127,0.02751277254300677,-0.05781971570729942,-0.04349553131203203,-0.05910365897319769,-0.07080685307778062,-0.05823013195858215,-0.10599781763652819,-0.07721132319251801,-0.0728273219340431
0.7944444444444445,0.022311342924606656,-0.009609083393832624,0.049695516695672855,0.013902404216044766,-0.006157286956952546,0.010744072666765107,0.007884965183863106,0.008249547966910447,0.0095885425251487,0.014189395923035225,0.007252410174857324,0.025330104312394394
0.7972222222222223,-0.009725463661952467,-0.052221375013115474,-0.015533388614651433,0.03333219281689636,0.004214183537025379,0.010380596206812916,0.00958266575317012,-0.05856462973263366,-0.018235099194258385,-0.004251734026041172,-0.008913544764447359,-0.04857379326692094
0.8,-0.07209347190326001,-0.044952377744659766,-0.07587470587841083,0.05663525469108027,-0.08473845147621777,-0.053770887751642744,-0.040073163700238355,-0.045892266828014644,-0.0636680449432104,-0.07457975641061189,-0.11272295264924659,-0.06441504169553278
0.8027777777777778,-0.029237131349002188,-0.03272253361871939,-0.05072337012479839,-0.015370962985291267,-0.047470553726744524,-0.018327627738408424,-0.027536122063744544,-0.04915490491006971,0.0002990600144304606,-0.032867143214647246,-0.028350792603248038,-0.016812999256842764
0.8055555555555556,-0.0930656847196356,-0.0707061310140348,-0.07211385374213303,0.04275076895624755,-0.0704331714059534,-0.054005922148215514,-0.0358837659550528,-0.04890075700253438,-0.013110727202023845,-0.06937026728699507,-0.08016883489623655,-0.07901551733516628
0.8083333333333333,-0.09599889484402323,-0.09117551339076224,-0.026790917665227145,0.04984833345414718,-0.0872999696963476,-0.06385055520414892,-0.03437781867668475,-0.03828073200629322,-0.05545075547980517,-0.10994536798312037,-0.08695317458495357,-0.07956635039374929
0.8111111111111111,0.00436724823944085,-0.0059064330654851815,-0.0033361156913812333,0.05131952873915281,-0.0456206293785428,-0.02660890158137592,0.014724465533042172,0.012100075439126466,-0.004632262937100569,-0.04099137203191415,-0.0031405066303899516,-0.042871083961211656
0.8138888888888889,-0.005958002086843925,0.009440221046124556,0.030076138848560058,0.025524116543851883,0.010405913609708124,0.03128510150098322,-0.011797965685922993,0.02862537690720762,0.05830011282851934,0.02585208288979717,0.03326895578206513,0.018625047547135693
0.8166666666666667,-0.05080602378205855,-0.04338200699443439,-0.04498409198535029,0.03512026546967935,-0.027017605575713304,-0.018914426954496657,-0.022136234495304573,-0.021976377090319462,-0.05467499760473167,-0.04759596504016161,-0.03357192919715485,-0.06139159129429646
0.8194444444444445,0.10304521954300107,0.053776119167393235,0.04765214364057726,-0.04020283855515764,0.03428986174550338,-0.01059344744308386,0.033812065626732155,0.08461239512041571,0.08885300284786318,0.034183541920468574,0.09702594192505647,0.06626927115694099
0.8222222222222223,-0.04002297198021361,-0.01583068798559646,-0.004142087022206415,-0.007063104849323914,-0.0262776195498121,-0.0403802829481849,-0.034887242416305524,-0.010611318910913374,-0.009957551615213053,-0.04948666077333817,-0.02799111789667143,-0.02190835205644251
0.8250000000000001,-0.09901520648500563,-0.08136203607887649,-0.09097811053639063,0.06365679677027453,-0.07469370678930354,-0.05926328896645066,-0.08325677360630084,-0.07761225622904908,-0.11127111526567757,-0.12141647924525245,-0.14698417844052408,-0.09717831360475389
0.8277777777777778,-0.1192017540951998,-0.10277264118559834,-0.06698479946016915,0.08490340022500728,-0.0833544676176243,-0.05785923976419855,-0.06044984521836409,-0.029276723777770103,-0.0653391385407078,-0.11206796665313488,-0.07845839330050881,-0.05101760737960724
0.8305555555555556,-0.12362216769589618,-0.12563112811423263,-0.06200197273858115,0.053360798815679386,-0.10979348479289308,-0.08701859764248121,-0.046722219397466895,-0.09655819097253092,-0.09482337377289315,-0.08656445921876768,-0.09072000616688237,-0.11398344669285346
0.8333333333333334,-0.19191584271152684,-0.13887691535766003,-0.06454906409139241,0.08464585886582286,-0.1582791798634736,-0.10970934444768275,-0.08367093181425161,-0.13796575594559624,-0.15610338192877365,-0.17844887675160429,-0.16037203955784202,-0.15300437345163226
0.8361111111111111,-0.07934940234175906,-0.09111743415363802,-0.0728807578688038,0.010218469047718576,-0.09646268595217974,-0.05966130099793368,-0.021797000086780295,-0.051427150590135126,-0.08415433700258053,-0.11918520735243718,-0.09758258746346027,-0.06434899549718456
0.8388888888888889,-0.03436745678881735,-0.04972495350540374,-0.02646454801832095,0.026803075445507873,-0.09324048360527881,-0.0691728377489125,-0.03547081938473555,-0.030433105196324854,-0.05964202425792274,-0.10559968335677322,-0.018307130036185938,-0.0324350766469442
0.8416666666666667,-0.058009681430049524,-0.0828086079411801,-0.017345128042155454,0.0006238798907950288,-0.033499818571423326,-0.039143522340618526,-0.03902801065866721,-0.044037437794297606,-0.02658749258599188,-0.04565141523066181,-0.07273550283674454,-0.0347927293802195
0.8444444444444444,-0.1397119614084308,-0.12313381215520755,-0.08016501707571981,0.0437816756116058,-0.09323175234065079,-0.08567093896588138,-0.0568403944985853,-0.10521697836621871,-0.16412405359671367,-0.1494065323228667,-0.1205745177417353,-0.09453550048588608
0.8472222222222222,-0.10188882748292374,-0.09303209898926629,-0.07504758539183023,0.03384369303083781,-0.08439387650796773,-0.0441425343786735,-0.07765175174268257,-0.07503005226739203,-0.05937194061926705,-0.1529126647528423,-0.10388823681781573,-0.08011700596240036
0.85,-0.15297757954985094,-0.1103105520361565,-0.055371599302929383,0.022625681653051267,-0.0817776628868169,-0.09261640475002797,-0.08004011073217589,-0.08419236115776291,-0.11163911905014227,-0.11935938440599278,-0.11938005290102585,-0.11553789180887894
0.8527777777777779,-0.07456164969280227,-0.03088487266094029,-0.03885517459048197,0.030510170362602403,-0.0478521372674102,-0.0709856681787662,-0.04991087356481696,-0.07509537102118338,-0.08745573537845762,-0.07243873745233582,-0.043040228804733606,-0.05240646100091139
0.8555555555555556,0.0014133049985913353,-0.001641541967873774,-0.036339677372729196,-0.006872642810360947,-0.021296578598483336,-0.015163875079278594,-0.03028594201293718,0.015447966864111453,-0.002149083161065146,0.041311685211957036,-0.030666402889702807,0.0012992856179430716
0.8583333333333334,0.14945115452044186,0.13446394183108487,0.052807596150117826,-0.07342041210492274,0.12488176841299331,0.11115057100073526,0.0840955696654868,0.1188393548398385,0.13520811686268858,0.14035685827899547,0.12091686003554375,0.1265569441632787
0.8611111111111112,0.3828499308065706,0.3164646589138511,0.21944728700539926,-0.14865997150372615,0.3402833644094658,0.2825135747002064,0.1961354584573462,0.2871362645447927,0.33056214833718994,0.3656914391951858,0.3343069220571319,0.2955322009198795
0.8638888888888889,0.5506025629104072,0.4347743921245373,0.2966320071020033,-0.2135442266827,0.48290246701648126,0.38739105486817976,0.24883138218794515,0.4357926068059395,0.4636540729292876,0.5109444149863659,0.4759224550694352,0.4267373906345908
0.8666666666666667,0.641228470502485,0.49322879789480956,0.3477386049670136,-0.2581450458814392,0.5874562231062939,0.4274447684240852,0.32117704705569,0.5210513794855108,0.6041562316362221,0.6442327382135589,0.5754714852812364,0.5338506036904257
0.8694444444444445,0.6601274339816319,0.5097874578937277,0.36847893620736405,-0.22539057447051533,0.5898219378092859,0.46160659526158915,0.3477520189967312,0.570230899039945,0.5952143262883859,0.6594215785230636,0.5776708231700421,0.5138912072836722
0.8722222222222222,0.7545793788358314,0.579456206974053,0.4793721132157932,-0.2740944742828674,0.6592060278904173,0.5067357210189277,0.35953114614718595,0.5991080776301121,0.6549936660060559,0.7641908138001905,0.6620217536106793,0.5958057902145529
0.875,0.7286831036808411,0.5534572438785073,0.405601521997789,-0.26903591614269734,0.6387184425921778,0.492946654618713,0.35321334538352545,0.5795698164377323,0.624179207948483,0.7136557709475163,0.6598774011178302,0.5810201178681222
0.8777777777777778,0.8649349430483542,0.640554754716184,0.4938780795631024,-0.29818833632112024,0.7229608496582627,0.560074823355095,0.3873433112030778,0.6156317307365156,0.73726173475796,0.8073070050834938,0.7522800932362277,0.6455088954873637
0.8805555555555555,0.7182165209087444,0.5619170666865074,0.4184073165978658,-0.2913969138486458,0.6450829573655666,0.4774322052008343,0.3283744268438582,0.5459911499801257,0.6537016043971432,0.6919771872639875,0.6313046145628889,0.5403539834700988
0.8833333333333334,0.5668559097345917,0.48569691760087363,0.3966314633459644,-0.24497685418853857,0.51523970107686,0.38093100287199544,0.275044606794247,0.4741983250918619,0.5414195742909614,0.5811709048861001,0.5389065012224727,0.46315932465790843
0.8861111111111112,0.3985060318657671,0.3270966328934855,0.2724748117799862,-0.17583736854315438,0.39272405762880175,0.3132634035102777,0.23603994543357615,0.3656423697692894,0.3891286282914243,0.44523559953205194,0.4057635521721187,0.39356485698086574
0.888888888888889,0.4270803171276812,0.33112626576099585,0.2921026231769823,-0.16164069890151228,0.38163511526615035,0.2958622100054933,0.24553047588975735,0.37019894912200996,0.40807086856946134,0.43888688041169593,0.3438182596563535,0.32638557391617334
0.8916666666666667,0.1317808825857431,0.15386919437307628,0.03718530280029077,-0.02456020915988596,0.14277809402517014,0.10831678719549886,0.05216639503612605,0.0802987660987867,0.12130419872658943,0.14795602710729266,0.11648986499935697,0.06824239734594698
0.8944444444444445,-0.05112196110071638,-0.03672532534989683,0.006113146516482641,0.04106955233656211,-0.018420475176079632,0.015388444476308692,0.002320249586478716,-0.0021256998236750743,-0.04570008898331257,-0.016942433858568084,-0.04405906106135895,-0.04988326129422689
0.8972222222222223,-0.07300445108571846,-0.08168034097867599,-0.03317239000476192,0.07489885988956509,-0.10085663942268,-0.053198114346858685,-0.048450930104442416,-0.10263107259606127,-0.07990328666021791,-0.07366413336664458,-0.09206828673527948,-0.05297838391557985
0.9,-0.07035543404138127,-0.0746927053465699,-0.08057071152242548,0.04482506087243526,-0.05537888430762147,-0.07612039425334875,-0.049537722492540154,-0.057299057147413866,-0.0703781128260649,-0.09307743189544741,-0.06579773459968774,-0.0782130071056356
0.9027777777777778,-0.10168830324570521,-0.08369234762808223,-0.05336805831009461,0.02159162014304048,-0.07872411135110632,-0.06279664803275116,-0.04503334771109263,-0.08039595516662759,-0.046338427105782995,-0.10588094384044458,-0.12074990450946754,-0.06663648287342946
0.9055555555555556,-0.03136823076519798,-0.05021821638656537,0.0015665042364574923,0.01759233559762061,-0.031095122115812387,-0.0230894211700028,-0.020135195058319087,0.016192267444674124,-0.06824885256289101,-0.005133766775143541,-0.04661696267564913,-0.07134908254835604
0.9083333333333333,-0.06390032069070123,-0.054859659586415345,-0.07192124345106839,0.05476431806922852,-0.09232541066962971,-0.060134317811264014,-0.014439302955785282,-0.04132298390025963,-0.07346506226001072,-0.08540559363262663,-0.08784955506401869,-0.08588189134136265
0.9111111111111111,-0.1350771954596853,-0.12361735674954884,-0.06422001327592758,0.07207880846363449,-0.11279340148078255,-0.08205524382310278,-0.05105327326708315,-0.09187706026212679,-0.10415052175988407,-0.1293008015266411,-0.1214851717847889,-0.11599476596067106
0.913888888888889,0.015717540732827263,0.002363752350799761,-0.0005671501899921026,-0.04126919900903994,-0.02946542101915921,0.04429498581276017,0.027822380342992743,-0.008482422109712697,0.06544113710832765,0.020680239526073448,0.04385983205567558,0.016538939476471563
0.9166666666666667,-0.02961162204249609,-0.03512401913128063,-0.0017354163202146396,-0.003810460319992069,-0.06511915280247062,-0.012139929216128786,-0.016961481578311614,-0.014492968405941819,-0.04321784500588084,-0.07045958838587327,-0.027175126599775987,-0.040323394490086664
0.9194444444444445,0.002707213931643228,-0.02423685300642546,-0.013199206339835474,-0.008121472723577956,0.03740942502675297,-0.018278267977111903,0.03181254508518308,0.002530748310985669,0.03912128927119063,0.004805450137105861,0.016647663424990525,0.023558505720594827
0.9222222222222223,0.03388625498875327,0.017718028608420103,0.013037418860828218,0.01544932418894754,-0.0038428069330589346,0.0021062412236098876,0.009113439346657256,0.004134791825152231,0.013087355976514264,-0.008856039596855754,-0.006557290188621331,0.04065215455825397
0.925,0.05426622256905611,0.043979739484329,0.03875680049228892,-0.03161065846758848,0.030876383364445092,0.07639116420979744,0.012646858034209972,0.041918468945406406,0.03435386999586019,0.055015593472055785,0.062374185888008735,0.0534959886515461
0.9277777777777778,0.0444975701738057,0.02826786580005141,0.017290133453023684,-0.03653197747035545,-0.009419029738007224,0.019957590590231812,0.012989078890184812,0.008157775545332051,0.019146946626624316,0.04678321751879222,0.03719529386418456,0.008604914995700496
0.9305555555555556,0.006381428704868688,0.013402374070119879,-0.003768356275765783,-2.9511152286790243e-05,0.013201983154340242,-0.03063620154373496,0.007007227082797964,-0.0040450054750576095,0.015500450525255994,0.03926844877719977,-0.028626251644766294,0.006494231312482834
0.9333333333333333,-0.00986364408391225,-0.01528219634391971,-0.008042984709117167,0.013507846857863007,-0.03191920389872918,-0.04725008906698452,0.006713332784690971,-0.027699703250918917,-0.020173014613588683,-0.04377013295544363,-0.044666683598429416,-0.054661537239522294
0.9361111111111111,-0.02833222436031739,-0.024330779636694826,-0.009276357261228692,0.03631089543041775,-0.02762490724481595,-0.010791679938433048,0.005945480498512007,-0.0030263791628531954,-0.019886636798261876,-0.022181005644360933,-0.042609491424982576,-0.04060592339464919
0.9388888888888889,-0.02224009653693632,-0.04509661493217819,-0.0020010549472380844,-0.006376295663223187,-0.014370565589377732,-0.04306150666379262,-0.03657963991182273,0.02283149666956539,-0.01309055169770043,-0.03940771479813756,-0.02582431797340804,-0.046344194452967225
0.9416666666666667,0.04297663827727058,0.02114060042571783,0.029677105891882417,-0.018157728377155236,0.023391805664600463,0.04290724364545799,0.020106545114054908,0.006663193593569509,0.005098005209043084,0.05456252866924055,0.05940545124882009,0.0013778694302551478
0.9444444444444445,-0.06581953175077875,-0.04093378956886139,-0.025644542214138324,0.02958035407571972,-0.059508340970280245,-0.04587797431193291,-0.027999171467711487,-0.04269481988866461,-0.05481280910566267,-0.06971501806228353,-0.03965489868566405,-0.092943309650129
0.9472222222222223,0.02119529831985651,0.03390645376847715,-0.05589316763078996,-0.022533198872689064,0.037810417154654476,0.008015472585855879,0.022459297168377863,-0.012131404351443094,0.011765155361549148,0.008751130871984807,-0.016216310102143756,-9.912704832885054e-05
0.9500000000000001,-0.03274312319572589,-0.05386157371586482,-4.501391270041177e-06,0.04011496754307345,-0.06295831032785065,-0.037455913611501204,-0.04681280404538059,-0.010167255390001177,-0.05023923756058547,-0.0874534118143279,-0.05379808563174925,-0.05613791577506645
0.9527777777777778,-0.0486384816163786,-0.005269563842757806,-0.018762061933120713,0.0030994464974924193,-0.027302805296905,-0.017530382258720067,0.004375593675095638,-0.00950023208768086,-0.013738667522047264,-0.007631722774024203,-0.018932544138609023,-0.012535018533158531
0.9555555555555556,0.06643784928780012,0.036621375602959715,0.00264433933849258,-0.022190202737702575,0.0433168125990539,0.00730357975111446,0.010791110116835709,0.022115869541027393,0.004116190690655781,0.062210506846269595,-0.0021020279587200333,0.016439875958995882
0.9583333333333334,-0.03445625556914102,0.0105610587683102,-0.019334075851270935,-0.028706190811354167,0.026473853793409514,-0.011285190257383072,0.008646604396281716,0.0020873152803411836,0.0179735732558077,0.022228557105673598,0.03219449202556247,0.004182514908546642
0.9611111111111111,0.13429115564721927,0.08952298757324023,0.048873819769767776,-0.05315009442314897,0.06911429120476958,0.07351695718043362,0.056499750878171655,0.07865817248638445,0.07355360242920858,0.08810882168168843,0.10612453355761967,0.07776290943019304
0.9638888888888889,-0.025127381982605362,-0.04527193143567191,-0.009312150131996677,0.005688648800023483,-0.0013679199047054464,-0.012576718365877905,-0.020742669779066414,-0.0126358624662828,0.018100655065789017,-0.0003580267661911999,-0.022298516410126683,-0.010067403005292345
0.9666666666666667,0.07097253403684385,0.04796809418895623,0.0722156190062514,-0.0511761834422787,0.03392735579492806,0.04636021011897532,0.002642013786889035,0.016097186494504742,0.0679189224426504,0.04301104566827125,0.05892862139385639,0.07210117337201805
0.9694444444444444,0.04829443666047229,0.04331561449333923,0.06989254286740676,-0.037629335617311147,0.06369850562173154,0.0321300429610652,0.09042570239275274,0.0499822371843064,0.11364626634033434,0.10738757508896493,0.07938558935600815,0.07400325917215769
0.9722222222222222,-0.01245135640858307,0.02740258749354723,0.02105234969089563,-0.01707044979540584,0.03695108546859659,0.005935786663975715,-0.0068463850335102605,0.004723383110840241,-0.00233740318441379,-0.02246801436077862,0.06610059813572872,0.038389481459361136
0.9750000000000001,-0.14397457029019753,-0.0852251313053393,-0.08334922735103348,0.0387027702171209,-0.05493090761265941,-0.08473397367713481,-0.05722198011496715,-0.10926094633020142,-0.1011800364602847,-0.09614115852224342,-0.099477949337025,-0.05106064921635166
0.9777777777777779,-0.09297228683945066,-0.06252859745488279,-0.03346372190268956,0.022048288715410657,-0.04348871910964046,0.0004653602990822084,-0.014898214989328192,-0.05888880184284732,-0.04751933417935745,-0.07173136652741322,-0.05789596722327725,-0.03094041464844271
0.9805555555555556,0.04995994027255775,0.033232771309070194,0.001270234799460028,0.005545311260220332,0.039230690081129324,0.032985465202962846,0.0101185557599316,0.03157545175623789,0.031334352498070914,0.0423252965909339,0.019598178027645463,0.04050636932162575
0.9833333333333334,-0.03042878191503398,-0.04275180144980877,0.044288593964244324,0.016602831663563102,-0.035010942150058226,-0.003044836341999233,-0.017549287994572636,-0.044013246811251794,-0.03685958886207318,-0.046601278533688506,-0.027319313239633363,-0.035216362464956186
0.9861111111111112,-0.004799478756867493,0.0113679770797015,-0.005626636545240012,-0.009936353306309688,0.0016567417222987536,-0.011336718150258857,0.021172702098698395,0.009666951821017237,-0.019768346901039003,-0.013985635926482283,-0.025640091419461355,-0.021397277811611996
0.9888888888888889,0.08682121945689565,0.0744167763495088,0.05697427368873424,-0.01395617019741021,0.13339356850842726,0.04779542730849774,0.05197690749643536,0.08239094397939982,0.09191478977034241,0.09078390720272947,0.07189522026830662,0.05786606508962828
0.9916666666666667,-0.03867999888954739,-0.04124928997695238,-0.010776869153540442,0.024900757746116692,-0.0813816689629269,-0.03589269046119729,-0.0024885622636384927,0.004788596446286347,-0.03614853261986774,-0.06849086008629776,-0.039628027687312106,-0.01583959886945143
0.9944444444444445,0.0055152374664772345,-0.004018413717184066,-0.04451430009664025,-0.0020438794131230655,-0.00889333986453034,0.006353096953017726,-0.005970708172477782,-0.008361963107905008,-0.0029350888715916155,-0.03849148134449677,-0.03600584224862967,-0.03393578217281218
0.9972222222222222,-0.020550404646257767,-0.019734438334956396,-0.0019196463845175032,0.011721838581307835,-0.030885267038535592,-0.023985632011075363,-0.002236568475478976,-0.05156015393217169,-0.014267941620732824,-0.018853572121680068,-0.02738226091132754,-0.028683951382880168
1.0,-0.07252394184932176,-0.03888424985005463,-0.039210805584724784,0.011013407455020083,-0.029141652137081128,-0.06550391454663454,-0.012382001382082059,-0.03706830657815765,-0.05695108980963849,-0.027925987162474457,-0.019187156982184754,-0.05814418615610914
1.0027777777777778,0.1075277225114501,0.07263339825167289,0.06332641280510642,-0.03484207065332259,0.10423988581207617,0.07015231112735304,0.06802372777925288,0.052767084765794545,0.07381394083785789,0.10325269001899967,0.04613821061283372,0.059725212100994435
1.0055555555555555,0.12017262852941402,0.11361608823486974,0.013356770424395238,-0.04653428793016359,0.06181069846480564,0.1084365911086124,0.10333917793810697,0.08423101899661287,0.10506217190174029,0.10762450080368162,0.13031751414712367,0.09659573343698317
1.0083333333333333,-0.002917258554974085,0.020388248497579673,-0.05070618988465606,0.004559156396810065,0.03855366851579656,0.008488637000339867,0.0036527774789711113,-0.0038900464492684188,-0.024281311960800418,0.020034103733065668,-0.012968741360962705,-0.01352274803436409
1.011111111111111,0.049547178930860844,0.021440415852612887,0.02372649421338297,0.010350386708098843,0.042219484732455355,0.04372563539843234,-0.006294722752552984,0.06148422632696003,0.04042857362865264,0.058345088056938346,0.06249056883201069,0.0374507739435229
1.0138888888888888,0.010288376710624618,-0.008721397730346121,0.01956493221616709,0.02468719728932654,0.019461762714904376,0.008880460737764247,0.011609672646759465,-0.033388877243427775,0.033039855886694044,-0.008803024336352685,0.01105358790216515,-0.00144194025336899
1.0166666666666666,-0.08603576698327152,-0.0441471808121674,-0.08776415041721283,0.04346659002348948,-0.08330251576306419,-0.04702678363951619,-0.02892189235318201,-0.08621512258588171,-0.037492162312175975,-0.11421095193695965,-0.05539085826120468,-0.04388319479401817
1.0194444444444444,-0.025672071477568136,-0.022958082176542043,-0.028785931417471326,0.029413164192406176,-0.07992920555757513,-0.031216105150721807,-0.035334181044151085,-0.05777953695695509,-0.05892701212837859,-0.04753229156438789,-0.05728621317906526,-0.036555934321391585
1.0222222222222224,0.04258072076047842,0.0399719963897533,0.03777283664922716,-0.04221743849163949,0.034921097994281905,0.0545511683877927,0.01831448793541674,0.0611574812890691,0.06901835314598147,0.023477005973768592,0.06483620108901633,0.03650239801141842
1.0250000000000001,0.07190513630694179,0.08492565807374275,0.05771576809921907,-0.028473182564126908,0.057276435934423754,0.03213227867998929,0.03189408097337572,0.04498203028477723,0.08415296088244348,0.10842421431820609,0.0493104393889056,0.04097517730648659
1.027777777777778,-0.005108798622946104,0.005190249406705903,-0.0023860138145493574,0.00982719676832274,0.01332466727282033,0.023213489990886585,-0.02120541272471189,-0.011177595657022405,0.016501827867417843,0.03204331234896748,0.02182424742328637,0.028154496009501956
1.0305555555555557,0.0035745223920419407,-0.00010240893594939959,-0.012118789526627878,0.014552725287201928,0.0013313027312619637,-0.003260598242537679,-0.022120128148740262,-0.02824705111913439,0.008830178324945502,-0.01001887644436093,9.817244607549652e-05,0.015472115817619161
1.0333333333333334,-0.001494300364241528,0.01665909998429188,0.048629305447808746,-0.0466750281615444,-0.00483792031488694,-0.01831200852499945,-0.008461301058973181,-0.019633750648860245,0.030001119283085492,0.02885533320094616,0.0035950857673082604,0.010304053028897323
1.0361111111111112,-0.005487747922538781,-0.005311367183286617,-0.051938984353932974,-0.01711136845630707,0.022099120221633874,0.01322264299223573,0.02192595007224071,0.021370060649586797,-0.0019432214708452102,-0.010002480704367916,-0.0021322148827150277,-0.009140058215403113
1.038888888888889,0.036758050377180225,0.052374785439796984,0.053465159354409306,0.022070246765586384,0.06945553320460796,0.023812168518841693,0.017014931714879215,0.0264595546697975,0.04883429414302261,0.049697119870093696,0.05838130453497096,0.02244831223794829
1.0416666666666667,-0.0381515805884448,-0.01943794627823471,-0.01636390282737379,0.004358325675413529,-0.026488908507827473,-0.029429597275076498,-0.0029361491370809394,-0.032439764173228004,-0.050668642412632026,-0.04646349986831977,-0.03100826676305448,-0.010814487286854017
1.0444444444444445,-0.03086681940895751,-0.02933446782074454,-0.02193075780162581,-0.017855214609269587,-0.012737031926526334,-0.00916052617760174,-0.014051182741607757,-0.04401209695407216,-0.04055633799094975,-0.023570177395822595,-0.030810943110259444,-0.015286868170154844
1.0472222222222223,0.08404016120380031,0.09109304530517241,0.08511838626232221,-0.04474283522208648,0.09216747814967124,0.04426627891068576,0.04613472829385083,0.08369800114622772,0.07455259373757173,0.10671381755832496,0.06901667925749205,0.08947135569998
1.05,0.05670510900325597,0.010362998952287764,-0.004305069139121955,-0.023786129581271923,0.02258685342074715,0.03509299006475298,0.012557665038612265,0.021707246768200506,0.03472429093136216,0.016947602982724262,0.007963278254120913,0.04494190260099321
1.0527777777777778,-0.02177274298429087,-0.004579046531072334,-0.0074750399212573735,-0.03265534588369804,-0.008715960624619087,-0.010455494364752517,0.036853788591503824,0.029113869966974706,-0.01150968111810603,0.05062571871421943,-0.011905421221519875,0.007976787599279963
1.0555555555555556,0.027509318663546015,0.011079343528368974,0.025654504988299635,-0.01219802621275837,0.006023645020538342,0.03190988076213862,-0.0024304462543940962,0.01100305107445098,0.0295773937274253,0.008307564705613996,-0.009061431948133102,0.04230109063819592
1.0583333333333333,-0.032264925410158185,0.010457980884680858,-0.01069430636283823,-0.03953010196105184,-0.011488534159452562,-0.05980799873608107,0.0007455407000076866,-0.010584141005573455,-0.052702262058272345,-0.038426089315894474,-0.053521956439237454,0.012777838280416811
1.0611111111111111,0.033883212414013424,0.0014029782943513897,0.03815850925866174,-0.015514849112977585,0.041719886032554714,0.02210355611158385,0.015937318902357264,0.014203004626790217,0.01577135109068957,0.0448636229902801,0.04331457270881855,0.022970032312994486
1.0638888888888889,0.031046172279906345,0.0068980954676666996,-0.008556586657619736,-0.005890454415495448,0.002414199194164591,0.03969967707423686,0.027031159784654275,0.015652614368399414,0.019987494663071186,0.02670884385057637,0.08347147763724419,0.0026692868164024143
1.0666666666666667,0.020420427067337172,0.009514890181511325,0.01571174560245596,0.003927791772522925,0.03433530732003724,0.009555070396002929,0.03990021833698251,0.017130569003429668,0.026676509714600997,0.006305775314740462,0.010823352721715928,-0.009809853609344077
1.0694444444444444,0.019094816856630913,0.028739726242026784,0.005131546228159388,0.03186815674389966,0.035030980128949965,-4.392376996082206e-05,-0.00918717218758318,-0.025362306343951948,0.021224466825123946,0.014534672539896338,0.0017381060459795601,0.01631509661549282
1.0722222222222222,-0.12350274278821868,-0.03783316572201713,-0.02230402366278789,0.056042415259299615,-0.06096308486877657,-0.0615228028135093,-0.05208384464626745,-0.05925487403831999,-0.09288601871375606,-0.09175844126589128,-0.11084916217964977,-0.04441861177462371
1.075,0.028910905476278004,-0.020124681471708275,-0.010358494719210496,-0.006074686428019497,-0.020005952058519114,-0.003706798918671845,-0.028659846114593872,0.01727464455325038,0.01990836978976243,-0.009548916321795952,0.0035415084396309307,-0.00016580448028947537
1.0777777777777777,0.013947274967868782,0.019446498951115724,-0.013322147678472014,-0.03249969465474323,0.0015290330606011517,0.025418663912955552,-0.03175148078574871,0.00936296935078108,0.006860399350105144,0.029728947652559044,0.01909460053106672,-0.013552509071399484
1.0805555555555555,-0.015369406778169559,0.05469719236033964,0.03180390996729822,0.002905554860642961,0.027702378765622208,0.03534657692106389,0.00621762756798086,0.043988428697844764,0.05756105824952241,0.027539634639907575,0.06273915370127195,0.037497688592719236
1.0833333333333335,0.024876882826235912,0.06706025995102441,0.04488137101106957,-0.022508210360237407,0.010932091910674038,0.06066196679736052,0.03732620850272125,0.01021975335693107,0.0642229573103025,0.04732331433136221,0.030596859727367084,0.029487779580842713
1.0861111111111112,-0.054314725078721995,-0.04597423035114228,0.00824391958821227,0.008487852706039446,-0.02524808593775793,0.002301185089585236,-0.027978519753105884,-0.015305922867792279,-0.024725974477264316,-0.0553725953007056,-0.006062712211371283,-0.034752342978797854
1.088888888888889,-0.014444118230611334,-0.03119476950691501,0.024563689441774672,0.02552313397385465,0.04857354589947761,0.013527928269585859,-0.015125521599440195,-0.031427256052494634,-0.017561360407040812,-0.00350830575983351,-0.020201078849417527,-0.014406217779678737
1.0916666666666668,0.03458472938856729,0.03320314992141742,0.0540997835505678,-0.013205161834200218,0.008683427998987216,0.0312634016887355,0.03905265636066774,0.041241268552978425,-0.011302688263422948,0.06099666804754468,0.051942520783208185,0.002968530493659912
1.0944444444444446,-0.03665707518247391,0.0031348214556917477,-0.00631149174180448,0.0010170508597742,-0.049655091343185215,0.02107329937424618,0.007532191896630845,-0.043399370447778474,-0.035078255617430484,0.00553145225147671,-0.0534048479416062,-0.029871969086966845
1.0972222222222223,-0.0686904095622781,-0.05873623199798349,-0.06417288044599767,0.027079076041398316,-0.07853453846622316,-0.05346668573811433,-0.07245243508135038,-0.05124627365853901,-0.11506297220474683,-0.07073146651423251,-0.052216908822213325,-0.05105083981524998
1.1,0.04801650550117542,0.00654644216681333,0.026362984931887063,-0.05423402660810348,0.08897815478325018,0.0382621915799625,0.04492806305624153,0.03876116933431926,0.06507490107955716,0.08911836580064175,0.05157619652050184,0.047165127384316594
1.1027777777777779,0.006740936966934977,-0.010990593191748901,0.01603029629919311,-0.015380755888488654,-0.01750081857138495,-0.007085329299290593,-0.00844718164239345,0.003318472206642178,0.04289113304819075,-0.01005378190547191,0.017963508562760983,-0.026080928352669206
1.1055555555555556,0.034984081404074066,0.08562084428587091,0.01631262568010679,-0.025113691613935365,0.047320736230608035,-0.0038875567216696827,-0.001754640858521072,0.05637485537178043,0.04867145043524532,0.062341935115789636,0.07746275077640409,0.04738430804563855
1.1083333333333334,0.08599483466649893,0.010584448758206133,-0.0019888206755364728,-0.01653035588459536,0.05935253617789081,0.04466605629871159,0.0376924716704911,0.03540401051284266,0.021970609501152042,0.0309151941955213,0.046988442260194246,0.06165406126315062
1.1111111111111112,0.022552974345387816,0.04281309698985215,0.028668501204578718,0.02059867440598784,0.029386372160253894,0.0448985752019523,0.06693154617952232,0.031450895309318896,0.015455434455289232,0.0370427377394804,-0.016207420189209325,-0.011852435457496403
1.113888888888889,0.005410845590103963,-0.0014844122302725782,-0.010415983213515995,-0.014775232105356874,0.06271038646559272,-0.012084349355730823,-0.0014406792263466804,0.004808002782166712,-0.002523035081707935,0.01311492825486349,-0.010704025472618584,0.01577071501485502
1.1166666666666667,0.05180239177342642,-0.01947681554861668,0.04618415641221202,-0.011388372553265667,0.04072269512310334,0.016650906298381972,-0.014463675542849991,0.004875170809701724,0.02166730528384886,0.03829671137926448,-0.0018569816784297644,0.03184414180605065
1.1194444444444445,-0.09415026519483768,-0.07213417196182874,-0.05736494551201168,0.0394584677014014,-0.06840353329956841,-0.0736826265665885,-0.03432651361789927,-0.0833047221534912,-0.08085763802183074,-0.10591751630040523,-0.09992440683314276,-0.09376290913056455
1.1222222222222222,-0.005870613469603925,-0.027488175684168906,-0.03366899036658129,-0.021576512122243905,-0.0426343833232999,0.026863266734358224,-0.009813332906505975,-0.005387183988129339,-0.03211992598663255,-0.004565953944172467,-0.05732238674417123,0.012507522331938234
1.125,-0.005896763061808533,0.04873938344267611,0.029420786025224018,-0.024287047319111868,0.028776999464504543,0.006514258007531668,0.03600614072454014,-0.017945421618237485,0.022877894896845122,0.024345990046058367,0.05624318231688897,-0.009176244092380947
1.1277777777777778,0.07966311898608297,0.0654630349181784,0.05512473235322609,-0.06199011555999929,0.07862010430091307,0.048831957041993786,0.04877534767763589,0.07920536003963596,0.11254599094800391,0.11146117813294391,0.04426566326839121,0.08085947392198212
1.1305555555555555,0.027766922393485986,0.013579385337906844,0.012124330499806282,-0.0001502235467195235,0.022220316134288334,0.0030472616593539663,-0.025336353797135856,0.03313968508979162,0.008074802719847937,0.0025605528626859754,0.01617002448174658,0.0062864157589424124
1.1333333333333333,0.0012699074635602412,0.01888031789159241,0.04880679410069417,-0.0007322225021060554,0.00699618337747705,0.03650127383683764,0.008146037861089438,0.00516609045771015,-0.014332770702446214,-0.014042162789167409,0.0037725269380355225,0.03688844116670471
1.136111111111111,0.029282609816060068,0.025422315678815997,0.03366446193354766,0.045311139484250834,0.03294492814537704,0.027159321313893488,0.012346217266857697,0.015570710205233833,-0.004792708276133692,0.018739294252385064,0.03056387001440872,0.03816790657989055
1.1388888888888888,-0.07525027857368762,-0.05300399082568731,-0.007138658103026142,0.01760187415407235,-0.03522522547515909,-0.027652041393254886,-0.0241802340462554,-0.01473360493807975,-0.04453916229562899,-0.03025000671231669,-0.044463995202229094,-0.06948812705122419
1.1416666666666666,-0.07123100540479568,-0.02186678725099528,-0.06386972567657542,0.012370387199125631,-0.05026141530845947,-0.05026193895526545,0.014064861867699414,-0.03760573266853106,-0.046369147492465235,-0.08348240514961741,-0.021738914426313143,-0.03128465643816345
1.1444444444444446,-0.0468298579360093,-0.024049432837710043,-0.04710636336633772,0.007661521128851328,-0.05852260153787853,-0.030302939451198715,-0.03883353727036531,-0.02875762930478541,-0.015115999894266915,-0.02594365726962477,-0.051406133975613395,-0.04858213945742329
1.1472222222222224,0.008903194195718136,0.05430340749555979,0.009054464898356776,-0.03362793615004202,0.01599512194427046,0.043307384691021814,-0.0012829941569657242,0.017597608605456977,0.028590809398361217,0.022288210742868707,0.0025573822312278532,0.03062242936354495
1.1500000000000001,-0.010724980194725267,-0.006389745649103365,0.04065851198659344,-0.005674591036696496,-0.004270865823470022,-0.02597651596718407,0.054655780508700846,-0.0415712652115353,-0.006098607765733907,0.0007775719253011728,0.01816053668573097,-0.004918711458277331
1.152777777777778,-0.0597922021434168,-0.0013654603624013509,-0.04527810921353932,0.00021095797632433855,-0.02729458666536591,-0.025428832095020795,-0.00897596441256476,-0.009017138619823332,-0.04332979995683349,-0.026601932274920744,-0.05180647430330954,-0.014092904364083326
1.1555555555555557,0.0358303822492979,0.008412437458999075,0.025969304307362235,-0.02374196295209459,0.01316997139752179,0.03538475253620981,0.06237103373363378,0.030808961207592883,0.028148623347856644,0.05948183341942728,0.04335981897438773,-0.031061993208163805
1.1583333333333334,-0.00015878618540443156,0.0019261486456733157,0.024895455369471648,0.05254126666654927,-0.014522596202363455,0.01011052326191003,-0.024054905194646554,-0.032075283901901536,-0.019979968817209984,0.006870859359838763,0.0026767212867927553,0.029137409178632365
1.1611111111111112,-0.03451123260202391,-0.04599721373446963,-0.031945963856711695,-0.003031500939415604,-0.07610259409942552,-0.0356735095392048,-0.02011156667347514,-0.040009118098129674,-0.030461621337575816,-0.06172607399188049,-0.05402142337268298,-0.05244375458940924
1.163888888888889,-0.0628791858708214,-0.09095266260687979,-0.01872124105678361,0.027638503026332455,-0.07021020775890349,-0.04341165108837251,-0.022802604144758865,-0.06156299423817248,-0.016200343910843143,-0.07205104151508761,-0.06035580516423845,-0.07429873276100793
1.1666666666666667,0.03216253561254563,0.03588945250576697,0.03446095325677709,0.022244743956386204,0.008304697918803013,0.026398637233256673,0.06164433819054013,0.029411337403077897,0.04051256748552456,0.03747398644112669,0.017274344388668192,0.05680292522306278
1.1694444444444445,-0.03466053370153144,-0.021038580375882236,0.01123799628160207,0.012609553781731675,-0.020523813183198323,-0.005897045173828521,-0.0335307193871057,-0.006153391379261365,0.008968735095166241,-0.00477661020612378,-0.020798896017506688,-0.013687728761901479
1.1722222222222223,0.022629844566903267,0.02027902845258513,0.00581706286983001,0.00837244769833369,0.00022810843851772417,-0.027767184782446004,-0.010753676278802218,-0.0016058771458038927,-0.01617721882966333,-0.019841764449513025,0.004651356870187067,-0.019248061068916987
1.175,-0.041504785955603196,-0.048088651881879746,-0.05571515563368691,0.026551646719110443,-0.04782095120199291,-0.01967782536123162,-0.03501229609537064,-0.03844623133350507,-0.06589909713666933,-0.06211726551392313,-0.06589664272956056,-0.04807270128744309
1.1777777777777778,0.008605255383370817,-0.021742624824941274,-0.013391120717579752,-0.004152298803911747,0.007390695211847769,-0.018439948089677256,0.04130980878392675,-0.01495044474801922,0.006473151560222181,0.02160285845861313,0.003819439193377573,0.015331461599472703
1.1805555555555556,-0.10593277053403291,-0.061316584525519774,-0.03279954440239236,0.04501217355565696,-0.06957865436804313,-0.05337760923743511,-0.03522539667443445,-0.00849397083716795,-0.049522643694006815,-0.07170045914071543,-0.023510859605492068,-0.033549025231436484
1.1833333333333333,-0.029859025699233856,0.005736255151637433,-0.013868988859467472,0.01405997966518914,0.018862483381712113,-0.037887236834013016,-0.06091805658526632,0.004387115003480135,-0.009988673128801901,0.00819404944127083,0.0009693250275361869,-0.0010190942205701853
1.1861111111111111,-0.03155861753860458,-0.05259495617800741,0.004696542479661139,0.03013848110801917,-0.025904944866282986,-0.03405797669760264,-0.05105178243038066,-0.04647270793286033,-0.04007347507264907,-0.0428780585051774,-0.04079332558021588,-0.03388447873485613
1.1888888888888889,0.023967579877535852,0.003305314473888415,0.025610805503067758,-0.02288411748109083,0.04001326058909846,0.07514457861523083,0.00037285818048251457,0.015850439296196606,0.030449052824043043,0.05245174620804384,0.023621955690223972,0.0357759536935375
1.1916666666666667,0.029987066056432407,0.039611041157668114,0.04181800498930846,0.006001164082035609,0.0352237853659401,0.021285946782928354,0.03543962738396786,0.02612748532014581,0.013628492277045715,0.051893732064942785,0.03004880792659581,0.023059385428549524
1.1944444444444444,0.11076287822278834,0.02811034004788307,0.04776329591445206,-0.052028149849456695,0.07525618932892754,0.05878078938449843,0.04376022382976467,0.07729279457867816,0.10149267598922382,0.07903269025919714,0.10060034416551956,0.062078236443528265
1.1972222222222222,0.011984801453749458,0.008632577859658673,0.0177160608145967,-0.019012516639591887,0.05368404828832403,0.015755208703934383,0.0497245032454502,0.05412410527159406,0.06687329112860646,0.022987197216431506,0.044751198229758773,0.02079564345401773
1.2,0.005899540684622274,0.01734810529154092,-0.016993091798325956,-0.012041673972071405,-0.00905617354303407,0.012274220686768167,0.0015575980178386024,0.02504183995239512,0.05814242234326192,0.04311328768973554,0.036572669183885506,0.017439653028984696
1.2027777777777777,0.002799644792698639,0.023159662966764357,0.020469630403665007,0.014025294579470358,-0.01262551921190725,-0.03543722818574186,0.043491752794507794,-4.4641645926023384e-05,-0.032148148012484536,0.03916865147796385,0.005100781159405102,0.01888978785909171
1.2055555555555555,0.0027825753018665515,0.01152140238220405,-0.028006099797028144,-0.00575239895781697,0.007464052447834526,0.017241520134661605,-0.004024603223790623,-0.015221234939334517,0.03440568068982774,-0.019031874374379868,0.0029592174377242354,0.020816107654072952
1.2083333333333335,0.0012240119909858044,-0.004863949707877381,-0.024966010257710912,0.011335113667442045,-0.05345123190337042,0.027775820394950537,-0.044834974161614,0.00045590432573733297,-0.04666673648649475,-0.021244874784879863,0.0012746499664128101,-0.045104719830447955
1.2111111111111112,0.009007919135203032,0.05569819095351376,0.05685788997562802,-0.02736966266007602,0.038632960445727456,0.019595939180815432,0.013278574650655814,0.05363923188325749,0.05132018559955163,0.02579422491763528,0.04869935949328712,0.06726970955518309
1.213888888888889,0.07179910142896981,0.09651167397648178,0.04342353546925053,-0.0367916627140977,0.0789842526735049,0.06872333667413819,0.02776338401037938,0.06931138294850277,0.06221795438878053,0.06606880383593106,0.056641333769485616,0.051209914121667796
1.2166666666666668,0.005576350309655434,0.0017146733004175588,0.004426708034672386,0.02140548921314571,-0.021191316962000613,0.012842598370420915,-0.0030239750761964605,0.0012253440248461266,0.00593838148571575,-0.04406029338470824,-0.023208685276743097,0.009494013712217829
1.2194444444444446,0.11583149821726443,0.10120773157409886,0.08300122521150906,-0.06109186422844344,0.13805714464064556,0.059830798235970824,0.07182875952211837,0.09189248851579748,0.09853379110109282,0.14414112020794848,0.12488380916365796,0.08671345444697423
1.2222222222222223,0.14250997426328305,0.08608187062319186,0.07209645005229122,-0.03425103164320501,0.09353248564101035,0.14272327864429996,0.09054282379208826,0.10518536838414978,0.11219337351429393,0.1012408271319355,0.11597309812393376,0.08491236184383155
1.225,-0.01183060717348287,0.04886909319272941,-7.173238881227895e-05,-0.0017957193451494605,0.049629374938904125,0.0231484214562603,0.017800643970759592,-0.005840509579419695,0.0361576937798474,-0.001579146349453532,0.0029731635860229706,-0.0011746389762223707
1.2277777777777779,0.019732654492895393,0.03329287243821535,0.018239197711522017,-0.006515374682778219,0.03178954932599258,-0.006438771419133245,0.047226037956734634,0.020161369073805797,0.055466894538493725,0.012492044153265455,0.05890171198497444,-0.030447262576012768
1.2305555555555556,-0.07141784591575859,-0.09124413548521737,-0.0426719792312993,0.033125247099842436,-0.0680446663976273,-0.05769593382229259,-0.05186012660377202,-0.06070108605334744,-0.10093821670286207,-0.09752893078731098,-0.07856912628942748,-0.06715570870453053
1.2333333333333334,-0.07826249334991973,-0.048109318439464706,-0.046110992487567906,0.03150994269495456,-0.051963528627137996,-0.06039603407881085,-0.007719771308937383,-0.027426672609353372,-0.043768944162601194,-0.018552510725969813,-0.06218364999215738,-0.009460862162688197
